-0.15807663,-0.13453268,-0.15273717,-0.2080351,-0.14218351,-0.14275955,-0.12946077,-0.101810716,-0.13363151,-0.11780114,-0.1499847,-0.10440358,-0.10755017,-0.12171129,-0.11648711,-0.10483849,-0.117050104,-0.08691708,-0.082716845,-0.052262302,-0.06972291,-0.06508298,-0.06575766,-0.052387338,-0.079082355,-0.08181953,-0.11754367,-0.15509886,-0.13148011,-0.14804316,-0.14030781,-0.13826057,-0.13301219,-0.16503666,-0.1389286,-0.14037938,-0.13200387,-0.13216308,-0.12249554,-0.13389473,-0.09401059,-0.05957125,-0.06307214,-0.07449323,-0.059379365,-0.1005404,-0.1512247,-0.16150706,-0.10515901,-0.10871666,-0.1200148,-0.088740416,-0.07251509,-0.07340996,-0.041221645,0.016342686,-0.03252681,-0.010811732,-0.05200154,-0.018801905,-0.046708323,-0.015125029,0.011411536,-0.006948113,0.013578294,0.0782333,0.034916658,0.083023764,0.0897645,0.11140245,0.1191205,0.1279254,0.15039442,0.10990841,0.065685146,0.022707192,0.0053606075,-0.021070583,-0.036933713,-0.021529462,-0.045907397,0.0041010147,0.047787037,0.036192797,0.34276742,0.8324624,0.84413195,-0.09185047,-0.5740742,-0.3275384,-0.13193072,-0.07704466,-0.10690415,-0.1023219,-0.11447447,-0.10027749,-0.10664105,-0.08568277,-0.07311242,-0.049461666,-0.075482525,-0.081000455,-0.086139426,-0.073381774,-0.08951984,-0.063855775,-0.074719466,-0.067235686,-0.07667647,-0.04846289,-0.0059724012,0.0022125877,-0.015480049,0.022649035,-0.045279395,-0.06617811,-0.09611865,-0.122638345,-0.097949244,-0.11858956,-0.14513892,-0.15879625,-0.11970492,-0.12194001,-0.14999561,-0.16728842,-0.148372,-0.14472198,-0.1813203,-0.1366761,-0.1432196,-0.1185792,-0.1087803,-0.14337204,-0.13241598,-0.121453926,-0.11666344,-0.11078632,-0.12640466,-0.14755493,-0.14083959,-0.13511378,-0.113984376,-0.1191203,-0.09052785,-0.07425914,-0.08728622,-0.062093712,-0.06592582,-0.07517821,-0.09189404,-0.13500573,-0.15700321,-0.1547745,-0.13659185,-0.1349462,-0.14602238,-0.1177069,-0.13913497,-0.15192743,-0.14228322,-0.120164864,-0.12965634,-0.08777199,-0.099347554,-0.08250152,-0.07214183,-0.07779479,-0.09056688,-0.09108662,-0.09928026,-0.1328172,-0.1141484,-0.11091752,-0.11010863,-0.112333074,-0.09375981,-0.07675508,-0.069541216,-0.06404941,-0.012941272,-0.030905077,-0.036584035,-0.052509982,-0.020231115,-0.028169679,-0.0028882762,0.006539982,-0.015238521,0.021184467,0.054394275,0.052912362,0.07843316,0.084755495,0.09648543,0.11074085,0.12533751,0.15118048,0.09701595,0.058327947,-0.009271579,-0.0346606,-0.049354963,-0.053545065,-0.027407428,-0.020642234,-0.0027947202,0.026014892,0.023377253,0.32309058,0.80420554,0.81840634,-0.04928859,-0.52187246,-0.30654016,-0.16465774,-0.12443504,-0.128336,-0.112275556,-0.11675422,-0.10858331,-0.10884053,-0.10831882,-0.09934842,-0.105081744,-0.109410584,-0.12639348,-0.12056189,-0.09085929,-0.10165011,-0.083615296,-0.093194656,-0.08355823,-0.0755442,-0.04262813,-0.031941593,-0.015514169,0.022182371,0.03191366,-0.005051931,-0.06081559,-0.08294215,-0.09672324,-0.093162484,-0.12733814,-0.13874157,-0.17369536,-0.11014718,-0.12610172,-0.14274584,-0.1501076,-0.1303121,-0.14295304,-0.16505308,-0.115141355,-0.12428482,-0.11870687,-0.09946111,-0.14557263,-0.11772204,-0.11733815,-0.113717556,-0.11164866,-0.13688761,-0.13464642,-0.13673879,-0.13842809,-0.10772868,-0.11916616,-0.09688748,-0.07685263,-0.08699709,-0.06923486,-0.059239447,-0.068148434,-0.09513277,-0.12649664,-0.15202115,-0.16434692,-0.1258375,-0.14170387,-0.1442326,-0.11140955,-0.12583166,-0.14042425,-0.14327869,-0.12994748,-0.15242901,-0.12056644,-0.11179447,-0.08397333,-0.0665433,-0.079870485,-0.10015415,-0.089781724,-0.09885677,-0.1304384,-0.12504049,-0.1093685,-0.10220371,-0.10700993,-0.10447982,-0.07911698,-0.07225961,-0.06729064,-0.0012112402,-0.027143897,-0.04019757,-0.042144936,-0.023994027,-0.056190144,-0.013605371,0.009680828,0.0009108779,0.037573066,0.06435628,0.06501638,0.07211807,0.091593415,0.10028996,0.13464557,0.14167358,0.15923752,0.11299211,0.08706068,-0.00027112663,-0.031450458,-0.052065622,-0.053882767,-0.038048383,-0.029241947,-0.001649244,0.03786794,0.03589956,0.3574377,0.84554535,0.85685694,-0.06898025,-0.58213437,-0.353714,-0.17191851,-0.119263195,-0.11893718,-0.11830485,-0.112907596,-0.11088392,-0.10738566,-0.10843963,-0.09611059,-0.10925995,-0.09628286,-0.11495737,-0.11169601,-0.082434855,-0.0976509,-0.080332465,-0.0888833,-0.08837308,-0.091842435,-0.05562071,-0.033063695,-0.013554084,0.02377129,0.046444748,0.005672959,-0.054989096,-0.08281351,-0.10146762,-0.100698546,-0.1372079,-0.13660802,-0.16440922,-0.09255769,-0.10712513,-0.1355504,-0.15183084,-0.13879445,-0.14500993,-0.17249572,-0.13019945,-0.13100938,-0.118819825,-0.114156954,-0.14362459,-0.1275926,-0.11022383,-0.11753745,-0.11098991,-0.13308528,-0.14918509,-0.1463662,-0.13095684,-0.11841725,-0.11756782,-0.10566122,-0.08837514,-0.099027865,-0.062428895,-0.076729484,-0.0637015,-0.092816755,-0.12192422,-0.1575384,-0.16280487,-0.13158137,-0.1340112,-0.14190273,-0.11080604,-0.124195255,-0.14321692,-0.13869904,-0.11681301,-0.13586672,-0.107049584,-0.101514846,-0.07248433,-0.06297387,-0.06959603,-0.08973049,-0.09335369,-0.09924732,-0.13233928,-0.11752151,-0.10829411,-0.09741252,-0.101105206,-0.099352054,-0.066498995,-0.06538613,-0.071475,-0.00895351,-0.023299143,-0.050726254,-0.039322775,-0.021567509,-0.03703093,-0.0042267707,0.0064123017,-0.018054161,0.03129373,0.049193818,0.062011305,0.07090269,0.08937776,0.09798645,0.12323663,0.14944239,0.1586728,0.117073156,0.08493649,-0.008925282,-0.0361772,-0.061729237,-0.06450102,-0.053557303,-0.038370058,-0.009723355,0.03439583,0.033624794,0.35923198,0.8329316,0.8477838,-0.058994565,-0.5585531,-0.34757224,-0.17286168,-0.13158664,-0.12777883,-0.11958659,-0.12202398,-0.11377016,-0.11236604,-0.116427444,-0.09427749,-0.12114449,-0.10982522,-0.12233213,-0.116921656,-0.10120424,-0.10333782,-0.09032638,-0.09226554,-0.09957135,-0.0876191,-0.057597354,-0.037956957,-0.015693417,0.03125167,0.042027727,0.016470412,-0.05490381,-0.08872027,-0.09724165,-0.09927738,-0.13320586,-0.12927087,-0.16415612,-0.078788765,-0.108263664,-0.13106546,-0.14234385,-0.122370474,-0.1446574,-0.15447272,-0.10905666,-0.11738389,-0.12749746,-0.1122067,-0.14187764,-0.13021016,-0.118906364,-0.11523261,-0.10939234,-0.14055203,-0.14041117,-0.13836314,-0.14502478,-0.11904668,-0.11681831,-0.09524893,-0.096854694,-0.08995181,-0.07730849,-0.06349217,-0.07519969,-0.094934665,-0.11165368,-0.14432633,-0.16734718,-0.12303776,-0.1386061,-0.13686264,-0.10617192,-0.119671814,-0.14480264,-0.13635293,-0.12157473,-0.13793346,-0.11958619,-0.0966866,-0.066270016,-0.050554067,-0.061614916,-0.07856298,-0.0872244,-0.09289086,-0.12668827,-0.12500268,-0.102409326,-0.090769894,-0.0982211,-0.099269964,-0.061958615,-0.060143594,-0.061641708,0.007954002,-0.013452923,-0.04057536,-0.032884575,-0.0146032395,-0.041339535,-0.0013410513,0.009800331,-0.0020287978,0.03400879,0.05958566,0.062040366,0.075572476,0.10191157,0.12098335,0.13270982,0.15970705,0.16217096,0.120637365,0.09396111,0.0092515275,-0.027070506,-0.053545635,-0.060809948,-0.057803497,-0.056349523,-0.021985896,0.03738839,0.035543367,0.3720174,0.85847795,0.8699231,-0.08260944,-0.601262,-0.37141263,-0.17279781,-0.11101823,-0.120528094,-0.11686357,-0.11440832,-0.11360562,-0.112145774,-0.11394046,-0.1025326,-0.11807297,-0.10121983,-0.10970544,-0.10334206,-0.09607549,-0.10045497,-0.090135746,-0.08675297,-0.10026547,-0.088115685,-0.055741448,-0.028040009,-0.00663594,0.028057465,0.054676775,0.022071615,-0.04562411,-0.08508395,-0.098025925,-0.103240386,-0.13513638,-0.13989745,-0.15866876,-0.079390205,-0.097786486,-0.13116586,-0.1352614,-0.11856005,-0.13535188,-0.16733162,-0.12125409,-0.12265419,-0.12808383,-0.12531695,-0.14294031,-0.1302319,-0.10324279,-0.11458112,-0.10657545,-0.13812605,-0.1540201,-0.14848144,-0.12333735,-0.11982714,-0.10499571,-0.108352184,-0.09909843,-0.10274633,-0.06878326,-0.085828625,-0.06390128,-0.08535293,-0.11409237,-0.15160935,-0.15626286,-0.13097745,-0.12861615,-0.14279762,-0.119890586,-0.12158834,-0.1425353,-0.13648808,-0.11493837,-0.14687867,-0.11318512,-0.10386455,-0.06495742,-0.04997497,-0.059188582,-0.07453023,-0.083622225,-0.095847934,-0.14253674,-0.13212769,-0.106907904,-0.095803805,-0.094199285,-0.09154288,-0.05716139,-0.065535605,-0.0685663,-0.00011985563,-0.018987859,-0.045663346,-0.02970594,-0.015292105,-0.034670338,-0.0026817254,0.009256548,-0.017954303,0.03436128,0.04896111,0.07124685,0.068773195,0.09162331,0.10219175,0.13127351,0.16344972,0.15708219,0.12373657,0.099194884,0.00012383983,-0.024969338,-0.06706859,-0.07334527,-0.0753981,-0.059797686,-0.019421719,0.040523183,0.03509508,0.3742846,0.84381145,0.86065924,-0.079221055,-0.57519597,-0.36826006,-0.16376688,-0.11572428,-0.11866278,-0.12315988,-0.13238603,-0.11858095,-0.11011599,-0.11760801,-0.08963787,-0.112984434,-0.10588197,-0.10939325,-0.11137848,-0.10544756,-0.098801196,-0.08557503,-0.0824478,-0.098164454,-0.08322131,-0.06314161,-0.03581233,-0.013852744,0.022714935,0.050771125,0.033050403,-0.04075848,-0.087088294,-0.10002364,-0.09810614,-0.1391211,-0.13858691,-0.16108166,-0.059823487,-0.098494865,-0.12512195,-0.15487939,-0.1258922,-0.13488297,-0.1311084,-0.086604714,-0.107557535,-0.12468838,-0.1133707,-0.1470936,-0.14793435,-0.13920344,-0.11554693,-0.110076234,-0.13887395,-0.1475557,-0.12419761,-0.16240564,-0.11992582,-0.116712004,-0.06857348,-0.083129466,-0.058762748,-0.07826304,-0.051340044,-0.10371846,-0.1077078,-0.12318159,-0.13346812,-0.15395048,-0.108679384,-0.13546237,-0.13240325,-0.1187809,-0.1186731,-0.14781024,-0.132552,-0.12592623,-0.121764,-0.11110336,-0.0939175,-0.0760801,-0.056945227,-0.06952694,-0.07443631,-0.083303295,-0.079808086,-0.1208385,-0.12595873,-0.108761296,-0.1133469,-0.11751555,-0.10185367,-0.06221517,-0.04276858,-0.049421117,0.014179341,-0.026495283,-0.031559903,-0.046395954,0.00024648383,-0.034091465,0.015456516,0.022051087,0.012106422,0.018975966,0.06612964,0.054195262,0.08687367,0.112878665,0.14057414,0.12579796,0.14489669,0.15580091,0.10421442,0.08720304,0.016003069,-0.016473642,-0.041631337,-0.043609884,-0.035320926,-0.04934336,-0.035397965,0.03533886,0.024865497,0.34865084,0.8538925,0.86212647,-0.09510529,-0.6008074,-0.35190964,-0.17028017,-0.08200988,-0.121354245,-0.09693178,-0.095447846,-0.11649234,-0.116183825,-0.1209981,-0.10642473,-0.10676685,-0.09472878,-0.09278691,-0.09014663,-0.07909471,-0.09460206,-0.080306016,-0.0896027,-0.076178,-0.07104136,-0.009779135,-0.013401859,0.003622225,0.03217283,0.06540566,0.013268949,-0.036222704,-0.07068054,-0.087684564,-0.09952081,-0.1209645,-0.13954265,-0.16441552,-0.10167728,-0.10944352,-0.1379963,-0.14959997,-0.13760439,-0.1664996,-0.18091837,-0.13554686,-0.1263637,-0.11473021,-0.11229525,-0.12949193,-0.12468604,-0.10929257,-0.13460845,-0.12642851,-0.13770594,-0.15544268,-0.15878412,-0.12211627,-0.12813628,-0.13669549,-0.13055569,-0.10343275,-0.11224928,-0.05768872,-0.096429475,-0.044191696,-0.09468783,-0.112630166,-0.1628264,-0.18045782,-0.14578621,-0.13096996,-0.1382116,-0.10684115,-0.118825585,-0.15603645,-0.13795726,-0.11281315,-0.13286592,-0.10440859,-0.08334709,-0.05152346,-0.056235828,-0.07085755,-0.10137583,-0.11805542,-0.097087525,-0.1287919,-0.10081079,-0.11361632,-0.08121694,-0.09419678,-0.10473909,-0.06704367,-0.064883634,-0.07085337,-0.0060311547,-0.02123256,-0.045441758,-0.044650223,-0.029171191,-0.043981627,-0.011341143,0.0031034062,-0.023154259,0.040336285,0.03896782,0.058922805,0.055628188,0.08424032,0.08161208,0.1234529,0.15767848,0.17365703,0.12752433,0.094961956,-0.01786747,-0.03067996,-0.06548581,-0.06238123,-0.060117472,-0.03415106,-0.011712603,0.03299995,0.041903988,0.38153517,0.84613955,0.86882406,-0.066041306,-0.5763084,-0.3810093,-0.19349577,-0.1414391,-0.14485355,-0.13283284,-0.12957987,-0.12674968,-0.122010924,-0.1332131,-0.1023085,-0.13567828,-0.124982595,-0.13884194,-0.12104444,-0.11982999,-0.116836496,-0.1087117,-0.105712056,-0.13049915,-0.113811925,-0.089258574,-0.045444466,-0.026870642,0.03690453,0.034862652,0.012753526,-0.070346914,-0.11835003,-0.11147826,-0.10076746,-0.13878559,-0.10744167,-0.14622335,-0.061854493,-0.108112305,-0.13334715,-0.16884372,-0.14993162,-0.18294924,-0.20784561,-0.1537613,-0.14565329,-0.12960404,-0.098897256,-0.15066813,-0.120751895,-0.15183966,-0.11461827,-0.11434938,-0.12410693,-0.11999093,-0.10901691,-0.11532057,-0.10393477,-0.09766436,-0.06859097,-0.080010734,-0.069623664,-0.061001714,-0.048249386,-0.07056434,-0.082705565,-0.110633895,-0.14977008,-0.14858904,-0.14752181,-0.1561093,-0.14576043,-0.1391405,-0.15252441,-0.15026397,-0.14475323,-0.13168657,-0.1342079,-0.12412746,-0.1325173,-0.09309517,-0.045430783,-0.07235405,-0.0755648,-0.075338356,-0.0980807,-0.14312938,-0.1484772,-0.118616104,-0.11369653,-0.12661575,-0.0912331,-0.07809599,-0.059771895,-0.04670056,0.007386715,-0.020206764,-0.0048706867,-0.055131037,-0.0078005786,-0.046537988,-0.013697257,0.020463616,0.00011089444,0.019441662,0.076517835,0.053516004,0.09706384,0.10694431,0.12136882,0.12092554,0.13597724,0.15218179,0.12333685,0.08358968,0.022002436,-0.0019284312,-0.028477676,-0.041546546,-0.03025352,-0.050191533,0.0029227275,0.053394303,0.0361857,0.35712427,0.8508581,0.8608048,-0.101079196,-0.5971233,-0.34294915,-0.14117555,-0.08746659,-0.11292421,-0.10529265,-0.10923301,-0.11262986,-0.11428485,-0.095485374,-0.06617254,-0.06888305,-0.0843599,-0.0869998,-0.08622122,-0.08010942,-0.1063645,-0.077638045,-0.080600664,-0.077350095,-0.088946074,-0.052094206,-0.01921174,0.0015894383,-0.014470955,0.018872531,-0.046269104,-0.06868493,-0.10012808,-0.115031086,-0.10921925,-0.14710732,-0.15086688,-0.1702906,-0.11073813,-0.11435128,-0.15111443,-0.15993431,-0.14837608,-0.16139588,-0.18864931,-0.14380655,-0.14125621,-0.11914497,-0.102005854,-0.14769505,-0.12412249,-0.121369965,-0.11798343,-0.10311554,-0.1248844,-0.13592342,-0.13483667,-0.12541968,-0.111964576,-0.11555635,-0.09239427,-0.07259203,-0.08867732,-0.05979004,-0.068405,-0.061468292,-0.08924907,-0.122090496,-0.15955852,-0.1553955,-0.13966022,-0.14033191,-0.1483765,-0.1259377,-0.14114486,-0.15543352,-0.14801636,-0.12694009,-0.14270853,-0.11034249,-0.112581015,-0.08133725,-0.059620753,-0.07724905,-0.09290782,-0.08563743,-0.10500676,-0.13555917,-0.12655415,-0.121119775,-0.10704583,-0.110878125,-0.09186026,-0.07156714,-0.06705882,-0.0592068,-0.0046122335,-0.020328209,-0.031276368,-0.055142358,-0.021143334,-0.03816992,-0.010593404,0.014898311,-0.0123407375,0.031283446,0.056479942,0.054512393,0.07626002,0.085761234,0.094779484,0.122227065,0.13715443,0.15177922,0.11384284,0.07599308,-0.0029577338,-0.021144858,-0.046008423,-0.048157893,-0.03729034,-0.032584608,-0.0016851184,0.038769446,0.03426951,0.3552181,0.8334347,0.8474205,-0.06694797,-0.5593424,-0.33500347,-0.16378306,-0.12455162,-0.13080375,-0.117356114,-0.11254139,-0.10675929,-0.11422938,-0.10643364,-0.08219639,-0.105673954,-0.10084586,-0.11513789,-0.098675035,-0.093230896,-0.103204325,-0.08504891,-0.08765989,-0.08996003,-0.08974845,-0.059195016,-0.039091315,-0.016825836,0.010201391,0.029208362,-0.018791318,-0.06268522,-0.09728701,-0.10882399,-0.098201886,-0.14582026,-0.13555516,-0.16403516,-0.09089566,-0.11190201,-0.14038925,-0.14954135,-0.124247,-0.1384791,-0.15548113,-0.11138572,-0.12662107,-0.12407228,-0.110219084,-0.15357305,-0.13034981,-0.11808242,-0.11636467,-0.103830464,-0.1361337,-0.140619,-0.13322318,-0.13899514,-0.1071919,-0.10815753,-0.083214164,-0.07414835,-0.083742514,-0.071435824,-0.058912363,-0.07989291,-0.091945894,-0.119213544,-0.1459803,-0.15306342,-0.12072684,-0.13587287,-0.13869819,-0.11924436,-0.13047324,-0.14331952,-0.1406072,-0.12808996,-0.14175116,-0.115391,-0.10812099,-0.080087624,-0.060034886,-0.0697837,-0.08718278,-0.084638655,-0.09797425,-0.13074552,-0.1270945,-0.109937936,-0.10666449,-0.108095884,-0.098603666,-0.06579589,-0.06616076,-0.05491237,0.005793994,-0.021229396,-0.035977114,-0.0429982,-0.016160326,-0.03840444,-0.0025803016,0.01572055,-0.0013025692,0.028137092,0.065548465,0.061523966,0.07879172,0.09841791,0.11022033,0.12888928,0.1401417,0.15373492,0.11371334,0.08738141,0.0047330875,-0.022893576,-0.049148653,-0.05530708,-0.04352022,-0.04012491,-0.011122563,0.036385156,0.029917927,0.3472449,0.8363972,0.847665,-0.07665706,-0.5733448,-0.3397019,-0.16351482,-0.10768938,-0.1145405,-0.10492505,-0.10804295,-0.105957985,-0.10271972,-0.10623898,-0.089997716,-0.10832056,-0.0891028,-0.10894232,-0.09861404,-0.081928775,-0.0901125,-0.074754715,-0.07768127,-0.07975464,-0.08002381,-0.04140528,-0.03346476,-0.008305142,0.020288642,0.049230166,0.0073039453,-0.041835923,-0.072134264,-0.09801783,-0.10000997,-0.13645801,-0.14134137,-0.1644523,-0.092010684,-0.106858455,-0.13674033,-0.15084843,-0.13364668,-0.1422004,-0.15768726,-0.111174546,-0.1205482,-0.11983157,-0.11021069,-0.14536105,-0.13298102,-0.11858615,-0.11980129,-0.10690852,-0.13622351,-0.1471918,-0.14260823,-0.14284456,-0.11682776,-0.118986875,-0.09461801,-0.078881435,-0.083953604,-0.067787774,-0.06562088,-0.07779232,-0.09731919,-0.12258617,-0.14921384,-0.16127968,-0.12260067,-0.13592449,-0.13892908,-0.11513777,-0.12616052,-0.14850347,-0.1376038,-0.123996325,-0.13439116,-0.107141845,-0.097626366,-0.073752224,-0.06454442,-0.07233203,-0.092085235,-0.093014084,-0.09845415,-0.12695642,-0.11852907,-0.110891536,-0.10293337,-0.10650929,-0.10051436,-0.06844613,-0.06284114,-0.06006961,0.00048702947,-0.02707027,-0.041925643,-0.044096485,-0.01936923,-0.03775751,0.00063917774,0.012653267,-0.0061380384,0.026978167,0.056879546,0.058278877,0.075399145,0.096251234,0.11093595,0.1237315,0.1438642,0.15889364,0.10839935,0.08155127,-0.0026501913,-0.02937464,-0.052015048,-0.052748036,-0.04038548,-0.03219051,-0.01681719,0.03204583,0.03132722,0.3519136,0.83778596,0.84998256,-0.068715766,-0.56908596,-0.34602728,-0.1736968,-0.11726756,-0.12646219,-0.109652385,-0.109409384,-0.11217923,-0.10955965,-0.113273755,-0.09722553,-0.1174534,-0.10229582,-0.11777141,-0.107537836,-0.08971821,-0.09947746,-0.08625686,-0.09121931,-0.09131197,-0.08432219,-0.043442395,-0.033545956,-0.011996479,0.027462754,0.047497563,0.0081231445,-0.050801024,-0.084790714,-0.097469516,-0.09950616,-0.13168122,-0.13020137,-0.16172066,-0.092892095,-0.10962206,-0.13511558,-0.15339231,-0.13603133,-0.15590708,-0.16231512,-0.11899469,-0.122291416,-0.11912882,-0.10566232,-0.14210401,-0.12845981,-0.12212267,-0.1249293,-0.11832196,-0.13730793,-0.14618972,-0.14538628,-0.14291896,-0.12052423,-0.12858579,-0.100970306,-0.08923948,-0.09035185,-0.066001065,-0.06945826,-0.0691376,-0.099450454,-0.11777704,-0.15165547,-0.17572862,-0.12976392,-0.13959865,-0.14061037,-0.10927431,-0.121087804,-0.15411527,-0.13837245,-0.120766886,-0.12970655,-0.10945778,-0.09176083,-0.06765577,-0.061910905,-0.073907994,-0.095361784,-0.09983006,-0.09608834,-0.12586093,-0.11217065,-0.11408217,-0.093306445,-0.10601285,-0.1026273,-0.06969779,-0.05693063,-0.061303105,0.0043429867,-0.020909918,-0.038015693,-0.047422133,-0.02153172,-0.045831323,-0.0050172075,0.009589548,-0.0065553067,0.034106534,0.055379752,0.056245115,0.073199056,0.09433585,0.10838587,0.12131842,0.14980097,0.16280636,0.114428475,0.08735384,-0.0017473231,-0.028845847,-0.057373334,-0.054842714,-0.045893736,-0.037052818,-0.016163245,0.030460289,0.033667028,0.3665212,0.8503132,0.8631874,-0.071712196,-0.58896077,-0.3627355,-0.18832244,-0.12930927,-0.13714881,-0.12186576,-0.11540933,-0.12151707,-0.118578546,-0.12156458,-0.10093458,-0.124996364,-0.107393876,-0.12469559,-0.105298795,-0.10077864,-0.10600928,-0.09246106,-0.097069815,-0.10568946,-0.0959065,-0.055877697,-0.03712984,-0.013725286,0.035076205,0.048156183,0.00911412,-0.06028357,-0.09815465,-0.10030944,-0.10347892,-0.13772042,-0.12008917,-0.15565324,-0.08554247,-0.10683076,-0.13533114,-0.13742225,-0.1253615,-0.13842788,-0.16712938,-0.12072282,-0.12449993,-0.123739675,-0.12368085,-0.14358583,-0.1325906,-0.109846696,-0.12368842,-0.10960448,-0.1376603,-0.15456891,-0.15161473,-0.12475663,-0.11794015,-0.10855864,-0.106688224,-0.09072318,-0.1046643,-0.0683275,-0.08896155,-0.061858296,-0.09033309,-0.115624174,-0.15597875,-0.15921998,-0.13168243,-0.12715513,-0.14055257,-0.11778262,-0.12163623,-0.1443068,-0.13833731,-0.11522175,-0.13789365,-0.11088122,-0.09899784,-0.062284764,-0.057184733,-0.06023848,-0.08314676,-0.08663347,-0.09689603,-0.13545802,-0.119484656,-0.109509096,-0.09327535,-0.0962048,-0.09249646,-0.057382394,-0.06501644,-0.07262485,0.00020332076,-0.018805893,-0.04721872,-0.032444254,-0.018432537,-0.032195427,-0.0041994127,0.00901362,-0.025799371,0.029651511,0.042560928,0.06121774,0.06359232,0.083079666,0.09517283,0.1208695,0.15687814,0.1532351,0.1208697,0.09431845,-0.0056246403,-0.027596092,-0.07002123,-0.07024568,-0.0725495,-0.051710945,-0.01679766,0.035373166,0.036158286,0.36888754,0.8375931,0.8547095,-0.07005051,-0.5671667,-0.36354226,-0.17248854,-0.12831987,-0.12725657,-0.12076015,-0.13163123,-0.11656533,-0.117457524,-0.1214159,-0.09497702,-0.12222614,-0.11164722,-0.11948117,-0.11318435,-0.106885456,-0.10203169,-0.084325574,-0.087410934,-0.10326101,-0.08264096,-0.060603518,-0.037730895,-0.016368484,0.029121596,0.04840675,0.03435685,-0.04512627,-0.08773289,-0.098601766,-0.09889177,-0.13603479,-0.12852466,-0.15851991,-0.06567042,-0.099929325,-0.12439307,-0.15759352,-0.127726,-0.13766736,-0.13304095,-0.09306392,-0.107865304,-0.12443642,-0.11364936,-0.14948519,-0.14903493,-0.13987774,-0.11968918,-0.11787169,-0.1409278,-0.15402554,-0.13072914,-0.16058433,-0.114764936,-0.11849946,-0.072583124,-0.08460814,-0.06641531,-0.07924509,-0.057349883,-0.09685989,-0.10695597,-0.119812384,-0.13722607,-0.16442996,-0.11698052,-0.13476568,-0.13142145,-0.11595913,-0.115577385,-0.15036161,-0.13181181,-0.12034511,-0.11305996,-0.10292414,-0.085625924,-0.07244349,-0.059275255,-0.0704064,-0.079054646,-0.08925768,-0.081812076,-0.121654734,-0.11878175,-0.113097236,-0.10827954,-0.11676022,-0.10086651,-0.062110163,-0.040678233,-0.050633084,0.013283306,-0.024439072,-0.028272837,-0.048005,-0.004673942,-0.035227496,0.011698269,0.016177213,0.005674077,0.016194517,0.062100627,0.05029789,0.08630181,0.107001,0.13531125,0.11693906,0.14266202,0.15205942,0.10448091,0.08751334,0.011535136,-0.017713267,-0.04998089,-0.048894584,-0.040017646,-0.04697296,-0.031977292,0.02738651,0.022631327,0.34801367,0.8485037,0.85909694,-0.08840232,-0.5953101,-0.35135025,-0.17940429,-0.09703167,-0.13144915,-0.10397385,-0.10520807,-0.122522675,-0.11820481,-0.12439373,-0.1092694,-0.11286306,-0.10203227,-0.10466697,-0.09553006,-0.08872497,-0.09672598,-0.08140054,-0.09243401,-0.085354984,-0.07225797,-0.017325424,-0.01705246,0.0019512447,0.03954408,0.062221557,0.019348796,-0.04449711,-0.07609757,-0.08600651,-0.09784706,-0.12511338,-0.13040937,-0.16533197,-0.10200086,-0.108973734,-0.13921449,-0.14324954,-0.13462299,-0.16328743,-0.18370833,-0.13578105,-0.12820165,-0.115778625,-0.11659729,-0.1314334,-0.12749632,-0.10743977,-0.13534251,-0.1274345,-0.13633849,-0.15885974,-0.15945306,-0.1130506,-0.12794684,-0.12987474,-0.1324895,-0.10575744,-0.1181718,-0.059429668,-0.10451049,-0.041856337,-0.09291415,-0.11351405,-0.16844408,-0.17427467,-0.14850025,-0.1262748,-0.1364701,-0.10868171,-0.12100542,-0.15041447,-0.1378653,-0.11009296,-0.13184014,-0.1092703,-0.08921196,-0.04722968,-0.053604618,-0.0637985,-0.09778936,-0.11472753,-0.09514463,-0.1276694,-0.09784835,-0.114027284,-0.07986893,-0.094133824,-0.10178447,-0.06739332,-0.069491304,-0.07566021,-0.0046889284,-0.020163242,-0.044566564,-0.038244206,-0.028655116,-0.040361814,-0.014372521,0.0067291614,-0.02776284,0.040245447,0.03329632,0.058522798,0.05137238,0.07980136,0.07634742,0.12126076,0.15964682,0.17021783,0.13129832,0.09943955,-0.017795226,-0.027734451,-0.071065746,-0.06784305,-0.071452975,-0.03331654,-0.010187712,0.037773766,0.0446022,0.38299078,0.8393721,0.86447054,-0.0659898,-0.5675676,-0.380319,-0.18582584,-0.14449437,-0.14300884,-0.1313194,-0.13694935,-0.12334099,-0.12468794,-0.1311457,-0.10288558,-0.13722043,-0.13034913,-0.14220233,-0.12543567,-0.124767534,-0.11618397,-0.10657425,-0.1024819,-0.13279705,-0.11075775,-0.092144884,-0.04274061,-0.02666441,0.036584653,0.033808157,0.022676954,-0.06720391,-0.11451302,-0.110754155,-0.10150415,-0.13982478,-0.10988761,-0.14600152,-0.05597886,-0.10287837,-0.12844507,-0.16835555,-0.13739489,-0.16050996,-0.18977223,-0.1408528,-0.14815888,-0.12591371,-0.10765178,-0.1522561,-0.13251604,-0.1339379,-0.10847729,-0.09699964,-0.11383061,-0.13606735,-0.11672101,-0.12099708,-0.10118465,-0.08960272,-0.055008277,-0.079910815,-0.06796696,-0.062925816,-0.056176916,-0.08723236,-0.0747867,-0.11104447,-0.14697434,-0.13120185,-0.14257607,-0.14331466,-0.13931768,-0.13762146,-0.1644544,-0.14802253,-0.1356981,-0.12068873,-0.13574028,-0.12827796,-0.121623784,-0.078029834,-0.03568879,-0.049456008,-0.059822068,-0.059640672,-0.09215621,-0.14522208,-0.15047511,-0.10610113,-0.11421546,-0.11595837,-0.08244285,-0.064959526,-0.05937139,-0.039173316,0.014389512,-0.011458836,-0.0025247298,-0.057371844,-0.00023610517,-0.016837606,0.0066367816,0.01936078,-0.010139512,0.013925384,0.08398484,0.047806006,0.09322282,0.10026689,0.12250954,0.12452821,0.1480559,0.15696757,0.13249099,0.08260709,0.027273612,0.0102923075,-0.025356827,-0.056149896,-0.037389506,-0.055613205,0.003203299,0.05203893,0.03629221,0.34486312,0.82426333,0.8380479,-0.08159721,-0.56348985,-0.30797568,-0.13172898,-0.07576725,-0.098826885,-0.10128512,-0.10611513,-0.09522846,-0.10259711,-0.09144407,-0.064656414,-0.066338405,-0.08440354,-0.08910314,-0.08085355,-0.083106585,-0.09073227,-0.070882656,-0.060262155,-0.069415234,-0.061914414,-0.033764854,-0.008652434,0.0076193144,-0.009981629,0.023779346,-0.025222583,-0.043255642,-0.078440614,-0.106888644,-0.11378135,-0.14428,-0.17335226,-0.16206464,-0.09544338,-0.11044671,-0.15107325,-0.16877566,-0.15181299,-0.14538361,-0.1784895,-0.14257899,-0.14342394,-0.11685417,-0.104107134,-0.14752433,-0.13123052,-0.11716587,-0.11547366,-0.111271776,-0.1280644,-0.15293925,-0.14279027,-0.14081968,-0.11608196,-0.11805019,-0.092516385,-0.0793983,-0.09046076,-0.057962313,-0.06565124,-0.07174769,-0.0884523,-0.13236357,-0.15471275,-0.15866277,-0.13562228,-0.13719846,-0.14267452,-0.111547045,-0.13475817,-0.14456947,-0.13689055,-0.112653196,-0.12810749,-0.085183054,-0.10027488,-0.08021837,-0.07263211,-0.07777271,-0.09323806,-0.0968696,-0.09835572,-0.12799378,-0.1127856,-0.10805022,-0.11023132,-0.109905824,-0.094304666,-0.07720022,-0.068687364,-0.06772224,-0.01976051,-0.027711209,-0.038788747,-0.053032067,-0.022700075,-0.027886942,-0.0027700963,0.0023190484,-0.018466681,0.020179823,0.057893507,0.053565595,0.07818965,0.08897719,0.093921885,0.114819236,0.12613538,0.15510876,0.10471455,0.06663696,-0.01445351,-0.036724366,-0.05259534,-0.06132151,-0.030716907,-0.021553809,0.0023272962,0.025168769,0.024351869,0.32173672,0.7987577,0.8145346,-0.03879321,-0.5153701,-0.3001103,-0.16457704,-0.13026287,-0.1288094,-0.11288629,-0.11644187,-0.110702984,-0.10383545,-0.105773404,-0.09775046,-0.11073564,-0.10998905,-0.12797059,-0.120850064,-0.093484804,-0.10169145,-0.08855974,-0.0867886,-0.085343234,-0.08102442,-0.04672117,-0.035638496,-0.019082474,0.025330305,0.028859554,-0.00063343334,-0.055669475,-0.074998364,-0.08687443,-0.09302234,-0.13089655,-0.14152119,-0.1748174,-0.10273168,-0.11733385,-0.14294825,-0.15368098,-0.13969225,-0.14362419,-0.17933287,-0.13009712,-0.13346961,-0.11836955,-0.10648332,-0.14316751,-0.12175154,-0.11319244,-0.11471096,-0.112545,-0.13796179,-0.14350721,-0.14030634,-0.13615626,-0.11355906,-0.11589105,-0.09984763,-0.07928032,-0.091538005,-0.060174074,-0.06682606,-0.06712794,-0.08887694,-0.12844734,-0.15342054,-0.15949216,-0.13018186,-0.13631694,-0.14033344,-0.109603435,-0.12669162,-0.13689275,-0.13863246,-0.12083423,-0.14325963,-0.11136816,-0.111131206,-0.07794553,-0.068789795,-0.07281735,-0.09405111,-0.091111556,-0.09977651,-0.13103308,-0.11930421,-0.10637332,-0.10060175,-0.10166261,-0.09669175,-0.072911456,-0.07472493,-0.071283534,-0.00821981,-0.027270092,-0.043047998,-0.044603337,-0.024022035,-0.04533177,-0.010139981,0.0072301775,-0.010308852,0.03165001,0.05933093,0.056161627,0.06632585,0.08881368,0.093889154,0.12826829,0.14279053,0.15956195,0.11180914,0.08166421,-0.0063004885,-0.03511748,-0.059037883,-0.062563345,-0.04374074,-0.030923337,-0.0015188368,0.030442905,0.033258777,0.34908417,0.82902235,0.8425866,-0.054084506,-0.5568247,-0.3367622,-0.1700512,-0.12777427,-0.123291075,-0.1168273,-0.11964024,-0.11205716,-0.106827565,-0.11013535,-0.097262345,-0.11074199,-0.09995867,-0.118390664,-0.11421995,-0.09040758,-0.099295154,-0.08291681,-0.08860471,-0.08624126,-0.089813285,-0.06054193,-0.03591923,-0.014719498,0.024251554,0.0395578,0.00784816,-0.057551146,-0.08229762,-0.095507614,-0.10102913,-0.13679092,-0.13935316,-0.16977237,-0.09158565,-0.10899104,-0.13778232,-0.16091053,-0.15292642,-0.1437368,-0.17812344,-0.13825837,-0.13711138,-0.11562538,-0.10874968,-0.14055654,-0.13439359,-0.11637875,-0.1237367,-0.11770446,-0.13417646,-0.1561189,-0.14971006,-0.14322591,-0.11934235,-0.12279285,-0.101972304,-0.08424268,-0.09688416,-0.059148222,-0.07219267,-0.070133336,-0.0961584,-0.1312923,-0.15700464,-0.1684528,-0.12970145,-0.13741022,-0.13867784,-0.1073559,-0.12438519,-0.14520763,-0.13409516,-0.11213926,-0.12205154,-0.08820331,-0.094886295,-0.07585022,-0.07378203,-0.07374323,-0.09635443,-0.10194191,-0.09893601,-0.12460726,-0.10469938,-0.10188001,-0.09976187,-0.10249518,-0.09757629,-0.065995894,-0.06289198,-0.074406646,-0.01827389,-0.028563138,-0.05563411,-0.04589151,-0.024964891,-0.03074945,-0.004073314,0.002231553,-0.019585196,0.01967547,0.04767532,0.053597555,0.075732775,0.096666224,0.103860304,0.11103362,0.1381849,0.1528042,0.104062766,0.07114373,-0.01738518,-0.046342026,-0.059181694,-0.06354684,-0.03619381,-0.025642179,-0.009983288,0.024801468,0.024122022,0.3371428,0.8162703,0.8315595,-0.04193375,-0.5338394,-0.3248733,-0.17646301,-0.13331488,-0.13407074,-0.113903895,-0.11934223,-0.114532456,-0.10846973,-0.11704204,-0.104474016,-0.123141944,-0.11625998,-0.13176528,-0.13031153,-0.098524675,-0.10493014,-0.09096129,-0.09579352,-0.095028065,-0.08206178,-0.047739275,-0.039642155,-0.017883208,0.03630117,0.035440017,0.014600754,-0.05777315,-0.084789395,-0.08867622,-0.09622806,-0.12652776,-0.12540913,-0.17405677,-0.0937784,-0.11359316,-0.137214,-0.15775478,-0.14435154,-0.14861186,-0.16802537,-0.13307446,-0.12793119,-0.11492351,-0.107589796,-0.13820009,-0.13438994,-0.11860976,-0.12330289,-0.12013853,-0.13360013,-0.15325108,-0.14768587,-0.14537686,-0.12742136,-0.12693806,-0.10551189,-0.09795596,-0.09484943,-0.062280342,-0.067161426,-0.06843344,-0.09815388,-0.121928066,-0.1527226,-0.17222989,-0.12685135,-0.13749757,-0.1402209,-0.10285614,-0.11657342,-0.14877903,-0.13520928,-0.11199445,-0.12746191,-0.09958871,-0.092066765,-0.0725615,-0.06372087,-0.071807384,-0.09068196,-0.10252816,-0.09727844,-0.1309993,-0.114606805,-0.107004486,-0.09634321,-0.10472909,-0.10574507,-0.06838967,-0.054310985,-0.06392199,-0.008124341,-0.024504067,-0.05167688,-0.044142995,-0.021409392,-0.04287621,-0.005018452,0.005090431,-0.006265223,0.03244504,0.05492801,0.05838737,0.07882583,0.10334725,0.11379301,0.123056084,0.15259019,0.16470832,0.11439812,0.08490672,-0.005967832,-0.039066967,-0.055441283,-0.060329657,-0.041421454,-0.03473136,-0.014935379,0.032025747,0.027215425,0.35894185,0.841168,0.8553422,-0.060365506,-0.56920975,-0.34903866,-0.17789036,-0.12673399,-0.13392091,-0.119523555,-0.115883216,-0.119430356,-0.11134504,-0.12018179,-0.09919008,-0.123485126,-0.112038374,-0.12657033,-0.1203586,-0.105554715,-0.10728733,-0.101232804,-0.09909989,-0.101355925,-0.09133,-0.048562422,-0.03343375,-0.010770205,0.040880766,0.046238333,0.01588693,-0.05729345,-0.09555657,-0.0928534,-0.09908362,-0.12978798,-0.12439053,-0.16616541,-0.08363267,-0.106398255,-0.13609946,-0.1373665,-0.12502387,-0.14299916,-0.17334615,-0.12762745,-0.12247694,-0.1266396,-0.11811703,-0.14067641,-0.1302611,-0.10544942,-0.116199754,-0.11400005,-0.14140761,-0.15280448,-0.15081424,-0.12673126,-0.124929726,-0.10601638,-0.10895374,-0.103290245,-0.10822313,-0.06688283,-0.08338641,-0.05770902,-0.08858883,-0.11550987,-0.15324883,-0.16152458,-0.1294464,-0.1310079,-0.14562011,-0.11587066,-0.117813125,-0.14147568,-0.137768,-0.11352605,-0.14504254,-0.11868419,-0.10444549,-0.06610018,-0.047231823,-0.061212238,-0.078251354,-0.082309045,-0.09383078,-0.1434533,-0.1316429,-0.108750574,-0.09643232,-0.09090762,-0.095793985,-0.060336042,-0.064985275,-0.07202215,0.00082591525,-0.016641928,-0.051241092,-0.02933689,-0.019644072,-0.047050633,-0.010137292,0.010207517,-0.00916392,0.04603724,0.05238602,0.07460619,0.06946358,0.0996393,0.10340807,0.13665736,0.17109416,0.16017944,0.12899856,0.10587617,0.001215189,-0.02719972,-0.068540744,-0.07642343,-0.07412198,-0.058805507,-0.017328069,0.049700186,0.03758261,0.38516125,0.85698104,0.87306494,-0.07828833,-0.59337413,-0.38131437,-0.17005825,-0.11977606,-0.12291225,-0.12969954,-0.12933831,-0.117765866,-0.11322388,-0.12149691,-0.08880482,-0.11607705,-0.105947256,-0.111442156,-0.11376796,-0.10938481,-0.104144216,-0.092153974,-0.08999142,-0.10244412,-0.09137834,-0.068709984,-0.035777442,-0.013509482,0.027086353,0.052654117,0.03461583,-0.046196982,-0.09259804,-0.0992653,-0.09853151,-0.13995667,-0.13356355,-0.16020738,-0.056300513,-0.095042005,-0.12591222,-0.15358216,-0.12665035,-0.12965927,-0.13781302,-0.09256549,-0.11512531,-0.13019077,-0.12078753,-0.15219735,-0.15037814,-0.1324329,-0.11033885,-0.10461822,-0.14291789,-0.149776,-0.12808086,-0.15933414,-0.116533555,-0.10450759,-0.06271804,-0.081687026,-0.06502587,-0.07896654,-0.050800204,-0.10500919,-0.10554154,-0.12144126,-0.13221475,-0.15194812,-0.1068525,-0.13317806,-0.1333138,-0.11924314,-0.11858361,-0.14370549,-0.13180564,-0.12152689,-0.11714362,-0.10595815,-0.100321956,-0.08310142,-0.060006753,-0.06659868,-0.07073075,-0.077197865,-0.08228201,-0.1269625,-0.12940972,-0.10308082,-0.11493622,-0.1111814,-0.098724596,-0.055113442,-0.044584636,-0.055393677,0.012338605,-0.023401678,-0.0357929,-0.04339965,0.0055284267,-0.028864937,0.017200485,0.015920883,0.0079892725,0.013159735,0.06691935,0.057902742,0.093074985,0.124417245,0.14728317,0.119894594,0.14592308,0.14764418,0.10275935,0.085267425,0.014106423,-0.023045361,-0.045999795,-0.052041385,-0.040795803,-0.055592705,-0.032366656,0.038345627,0.021026924,0.34401485,0.84704334,0.854261,-0.08933743,-0.5891614,-0.34163782,-0.16516462,-0.08215492,-0.114995465,-0.0923362,-0.098185465,-0.112173446,-0.11029292,-0.119349755,-0.102230154,-0.101256356,-0.088744104,-0.08687762,-0.09813819,-0.07880848,-0.092025526,-0.074350454,-0.0842361,-0.06806259,-0.062752984,-0.00998029,-0.017010594,0.006284564,0.029214755,0.067009404,0.021516263,-0.033032954,-0.0643573,-0.0840747,-0.094719045,-0.1209126,-0.1417165,-0.17547902,-0.10349868,-0.11249522,-0.13710716,-0.15071243,-0.14466764,-0.1649569,-0.18739343,-0.14337751,-0.13571839,-0.10923375,-0.11962044,-0.12852284,-0.12827574,-0.109259464,-0.13843955,-0.12915875,-0.12740745,-0.1605426,-0.16208136,-0.11419715,-0.13061124,-0.13427548,-0.13731468,-0.10698132,-0.11861329,-0.053506304,-0.10701511,-0.042791367,-0.094494,-0.117066994,-0.16961081,-0.17290689,-0.1482426,-0.12712361,-0.13937823,-0.10999347,-0.12308499,-0.15710944,-0.13595352,-0.10855092,-0.12559566,-0.09759046,-0.08438356,-0.051875677,-0.059257064,-0.068547614,-0.09870551,-0.120414324,-0.099335134,-0.13394167,-0.09842835,-0.114004105,-0.08160625,-0.09699878,-0.10188785,-0.067400925,-0.06691099,-0.07946766,-0.016696913,-0.027381293,-0.05360943,-0.04626504,-0.026394472,-0.035988096,-0.010704779,0.0037252798,-0.031762786,0.037169885,0.028923025,0.055312414,0.051934674,0.081004836,0.07385068,0.11734443,0.15682517,0.17127168,0.12365716,0.08919336,-0.02169202,-0.033655033,-0.0664371,-0.06326134,-0.058396563,-0.027911128,-0.0074446984,0.03826303,0.045864556,0.38100666,0.83453995,0.8595285,-0.0599332,-0.55464846,-0.37249136,-0.18633105,-0.14569326,-0.14426796,-0.13216576,-0.13335256,-0.12676826,-0.12587638,-0.13789673,-0.10260202,-0.1370833,-0.1322567,-0.14202692,-0.12952133,-0.12805048,-0.12195841,-0.11142509,-0.110034086,-0.13107693,-0.109766304,-0.08529033,-0.047988735,-0.028773593,0.038040817,0.028150763,0.015327678,-0.071028166,-0.12438574,-0.1116681,-0.098605566,-0.12871663,-0.10338699,-0.14627883,-0.058854375,-0.11307851,-0.12903237,-0.16507895,-0.13429876,-0.18034641,-0.20266135,-0.1437707,-0.14680661,-0.13172407,-0.1006778,-0.15822774,-0.1170739,-0.15443547,-0.116251186,-0.11974187,-0.123003244,-0.108148396,-0.098452896,-0.104943775,-0.08060687,-0.084655434,-0.06313322,-0.07468459,-0.0689409,-0.06680281,-0.04789583,-0.076172,-0.08024013,-0.1085563,-0.15056176,-0.14383285,-0.1487978,-0.15955448,-0.15245536,-0.1500769,-0.16511731,-0.1602114,-0.14850324,-0.15212226,-0.14203656,-0.1343921,-0.1409257,-0.105655976,-0.04608477,-0.06414923,-0.07237528,-0.0751559,-0.10553564,-0.15554236,-0.17201047,-0.117298976,-0.111437574,-0.13683991,-0.094902426,-0.074711636,-0.063860275,-0.038513403,0.015149529,-0.022631621,-0.011938911,-0.045597225,-0.012762198,-0.04949597,-0.022551056,0.030232238,0.009993317,0.01953671,0.077213295,0.057219613,0.10228713,0.11213512,0.12785193,0.13370328,0.13474885,0.14774264,0.12817572,0.08367387,0.032973137,0.002044947,-0.015976435,-0.03263383,-0.022033675,-0.051891938,0.0013356945,0.062302776,0.044943858,0.37062857,0.8687864,0.8781241,-0.13333625,-0.62323946,-0.36985868,-0.13248116,-0.07010834,-0.09363656,-0.10267712,-0.10697819,-0.10484169,-0.107154205,-0.09229899,-0.057180673,-0.057437148,-0.067728564,-0.07544835,-0.07429158,-0.06777666,-0.08834305,-0.06736554,-0.07758695,-0.07266366,-0.08631816,-0.054447897,-0.025453812,-0.0016145429,-0.022362845,0.018789902,-0.057744708,-0.066995196,-0.10746276,-0.13888745,-0.11060982,-0.13826819,-0.14887871,-0.16518374,-0.11658121,-0.11902241,-0.14981668,-0.15298992,-0.12941657,-0.15627718,-0.17543998,-0.12024721,-0.13312817,-0.12156549,-0.098662555,-0.15635553,-0.11698494,-0.117063895,-0.113181226,-0.10399909,-0.13602889,-0.12207199,-0.12646957,-0.12279731,-0.09589542,-0.10996279,-0.08648799,-0.06460215,-0.08118877,-0.06642777,-0.058038406,-0.072973326,-0.09108546,-0.11986517,-0.15195464,-0.15319918,-0.13003144,-0.1469563,-0.15231778,-0.1357496,-0.14332677,-0.15245686,-0.15094967,-0.14901742,-0.16085143,-0.13330452,-0.12552546,-0.09609742,-0.059362445,-0.07278957,-0.09383879,-0.08126516,-0.10452503,-0.13728184,-0.14491428,-0.11895593,-0.111605845,-0.119853914,-0.10461273,-0.07246541,-0.0724757,-0.054166067,0.0056808125,-0.020006884,-0.033670604,-0.043388117,-0.020109737,-0.048441228,-0.014757992,0.023653524,0.00825948,0.034167532,0.065526284,0.061635967,0.07237084,0.09696513,0.102198325,0.1400262,0.13688405,0.1499725,0.12406887,0.08776956,0.010608528,-0.017880391,-0.039149165,-0.046892606,-0.03536311,-0.03438252,-0.0038306674,0.041066002,0.041967034,0.36425605,0.85297674,0.8647037,-0.095187955,-0.5948492,-0.36059147,-0.15695933,-0.10595995,-0.11028192,-0.11044675,-0.10901615,-0.10321689,-0.1043757,-0.099040985,-0.0764123,-0.0976535,-0.084781855,-0.10122374,-0.08955055,-0.073376834,-0.082627654,-0.07357782,-0.07924997,-0.078773566,-0.08986619,-0.06262698,-0.041817736,-0.018472582,-0.0031379783,0.03631541,-0.024134504,-0.0585022,-0.08881596,-0.123467065,-0.10672944,-0.14228918,-0.14056377,-0.16065721,-0.096522465,-0.10921638,-0.13861449,-0.14325765,-0.12379141,-0.15175684,-0.17772166,-0.11801924,-0.1307476,-0.12210901,-0.10742702,-0.14481506,-0.11200453,-0.10996339,-0.1185465,-0.11158899,-0.14507532,-0.13105996,-0.13903385,-0.1281141,-0.10906182,-0.11639685,-0.09605067,-0.08060778,-0.09103929,-0.06981276,-0.068385966,-0.06567276,-0.093816735,-0.11697928,-0.1490944,-0.16367503,-0.13101271,-0.14142801,-0.1440603,-0.11658362,-0.12920547,-0.1437314,-0.1483872,-0.13681893,-0.153836,-0.12451928,-0.11639699,-0.0801859,-0.0585646,-0.07158136,-0.09354411,-0.093778886,-0.1002846,-0.13316211,-0.12624955,-0.111538716,-0.09510891,-0.10463251,-0.09806248,-0.072021104,-0.0770424,-0.069897875,0.004048522,-0.01960462,-0.033041008,-0.039709795,-0.018211069,-0.050673038,-0.011598208,0.010501062,-0.006945155,0.03783868,0.06455772,0.0629088,0.07010635,0.093675345,0.097450994,0.13216397,0.14437738,0.15971947,0.118792765,0.09121444,0.003303169,-0.025560293,-0.05249248,-0.057251982,-0.052248508,-0.03887554,-0.0029027679,0.03429765,0.04095143,0.371444,0.85169786,0.86315227,-0.07662365,-0.5940719,-0.3629526,-0.16895153,-0.11975166,-0.117078796,-0.115231045,-0.121073574,-0.11359978,-0.10996935,-0.11308996,-0.09675965,-0.110250436,-0.09914022,-0.11139543,-0.103896454,-0.08416193,-0.09629327,-0.076371044,-0.084346235,-0.09203355,-0.0993696,-0.07253438,-0.042576835,-0.018093003,0.014079767,0.045160953,0.0040663774,-0.058491066,-0.09109071,-0.11153171,-0.11063016,-0.142413,-0.13380487,-0.1568094,-0.0880337,-0.10456614,-0.13614793,-0.13373734,-0.10442331,-0.13580424,-0.14567052,-0.08374431,-0.109609134,-0.1364932,-0.10851296,-0.15243773,-0.12208552,-0.1192408,-0.10521717,-0.09760936,-0.14939868,-0.1252824,-0.12278591,-0.14748955,-0.0979054,-0.09530358,-0.06719942,-0.07489691,-0.071491525,-0.0829984,-0.056267053,-0.09009208,-0.09374123,-0.10807312,-0.12758388,-0.15621828,-0.110490985,-0.14731282,-0.13646826,-0.12154684,-0.12771814,-0.1352633,-0.13686469,-0.1415368,-0.14900947,-0.14017469,-0.11306754,-0.0786376,-0.048892684,-0.06229776,-0.0772415,-0.07268033,-0.08681305,-0.12234235,-0.13791913,-0.09775155,-0.097756624,-0.102875926,-0.091103636,-0.060893457,-0.06620161,-0.061320867,0.021321299,-0.019741205,-0.028639298,-0.033886746,-0.013066001,-0.04991313,-0.00082050986,0.020531539,0.009753796,0.029868586,0.07602188,0.06676204,0.07803588,0.11129469,0.12815638,0.14325163,0.15068272,0.1499238,0.11590494,0.092049174,0.023103334,-0.012941996,-0.04099037,-0.05343963,-0.04745365,-0.06050771,-0.023209557,0.04573064,0.042656027,0.37043425,0.86763704,0.8743331,-0.10164611,-0.6268896,-0.37541708,-0.162752,-0.08398265,-0.09871351,-0.09866575,-0.1085584,-0.10487243,-0.10452993,-0.10445711,-0.095675506,-0.0958101,-0.07687594,-0.08127732,-0.08421223,-0.060058504,-0.08173709,-0.060217317,-0.068246394,-0.07322451,-0.0809695,-0.042895213,-0.028012548,-0.0037602936,0.0071632187,0.058085557,0.010072042,-0.03650738,-0.067568384,-0.10152773,-0.113183506,-0.13678582,-0.14917143,-0.15406239,-0.09414383,-0.0947238,-0.13451195,-0.15052468,-0.13776961,-0.14882305,-0.16358978,-0.10780443,-0.115817584,-0.11851311,-0.1030374,-0.13713863,-0.12521794,-0.1171513,-0.11782409,-0.10900217,-0.14241408,-0.14007077,-0.14119875,-0.14574741,-0.11541868,-0.12253885,-0.09389266,-0.081136726,-0.07987173,-0.064120136,-0.06751384,-0.0784544,-0.10424174,-0.12119622,-0.14375807,-0.1717916,-0.11909965,-0.1431039,-0.13748154,-0.11049289,-0.11951699,-0.1454818,-0.13769272,-0.12950957,-0.13623105,-0.11658553,-0.09842263,-0.07682673,-0.06662621,-0.07976423,-0.101826526,-0.09766863,-0.096914895,-0.120829694,-0.117109984,-0.106865756,-0.09917884,-0.10649706,-0.10099151,-0.06782547,-0.059638787,-0.067009754,0.004555059,-0.028672576,-0.039769173,-0.04658796,-0.021877678,-0.048142154,0.0015123623,0.013124259,-0.0007655693,0.033013746,0.06278096,0.060464103,0.076983675,0.10321895,0.113708556,0.12575166,0.1473341,0.16090295,0.11099817,0.08207843,-0.0029917788,-0.031610403,-0.049489517,-0.050615788,-0.035673592,-0.03194083,-0.020803047,0.033809442,0.0325201,0.36365458,0.85147303,0.862087,-0.06902173,-0.5896183,-0.35477173,-0.18261264,-0.11466145,-0.12777117,-0.11135474,-0.10966437,-0.11606797,-0.11366027,-0.12021176,-0.10083736,-0.11838378,-0.10178674,-0.11374433,-0.10738809,-0.08045782,-0.10027795,-0.08489244,-0.09445827,-0.09210399,-0.09478002,-0.047940142,-0.035907973,-0.013251428,0.027627869,0.04830173,0.0016164132,-0.06099537,-0.09233,-0.09948074,-0.10458602,-0.13343024,-0.120762855,-0.1551744,-0.09239934,-0.107730106,-0.13806394,-0.11781083,-0.103670314,-0.1360232,-0.16951713,-0.11365628,-0.12219438,-0.13482937,-0.12764527,-0.14721818,-0.1213764,-0.09301295,-0.115083784,-0.107702136,-0.14528018,-0.14500389,-0.14633591,-0.10286348,-0.11011368,-0.092109844,-0.110931724,-0.09761887,-0.113189064,-0.071689844,-0.098208025,-0.05288803,-0.079243876,-0.10061827,-0.14622732,-0.15881872,-0.1366581,-0.13013512,-0.150065,-0.12987246,-0.11453135,-0.13385426,-0.14099786,-0.12535767,-0.16695358,-0.13589285,-0.11460084,-0.06426887,-0.03540262,-0.049643412,-0.06756299,-0.07529132,-0.09431527,-0.15087028,-0.145802,-0.111667894,-0.091988735,-0.08804516,-0.08447183,-0.054092962,-0.072249815,-0.07572567,0.011570113,-0.0028976363,-0.04077855,-0.018900005,-0.022731833,-0.042036023,-0.012693855,0.019383503,-0.022046976,0.047991287,0.050458286,0.07983193,0.060609996,0.089700125,0.08829805,0.13825212,0.16940135,0.15297839,0.14240687,0.11977765,0.009149951,-0.016790524,-0.06742752,-0.08048498,-0.094021566,-0.07547434,-0.015799616,0.05356713,0.045705855,0.401357,0.8642073,0.8808761,-0.09971231,-0.61426926,-0.4000565,-0.15966667,-0.11143521,-0.1069334,-0.1288563,-0.14164275,-0.1209447,-0.11216926,-0.12273779,-0.07891714,-0.106958374,-0.09788573,-0.09326853,-0.094570205,-0.1026807,-0.092760116,-0.07467346,-0.07322094,-0.101071626,-0.09253161,-0.07916022,-0.042083167,-0.017540524,0.013097646,0.058997065,0.04441712,-0.033582743,-0.08718905,-0.10669833,-0.10820549,-0.14532131,-0.13298489,-0.14136997,-0.03262848,-0.084823824,-0.12392874,-0.15902065,-0.11840809,-0.13090548,-0.115876436,-0.06676936,-0.10670079,-0.12546127,-0.11364364,-0.15122347,-0.14919746,-0.14219761,-0.11098272,-0.10542834,-0.13917468,-0.14214005,-0.10753198,-0.16950978,-0.11199192,-0.10847547,-0.048177093,-0.07624053,-0.043226704,-0.08421998,-0.046608336,-0.11910325,-0.11470541,-0.123513944,-0.12690605,-0.1469747,-0.10101878,-0.13748582,-0.12774517,-0.121684454,-0.12245129,-0.14708136,-0.1334313,-0.13696404,-0.1085363,-0.11205396,-0.08966303,-0.07894625,-0.056093078,-0.067065224,-0.06917241,-0.086892,-0.07133314,-0.11398827,-0.12048892,-0.105668925,-0.11442129,-0.12606986,-0.09986789,-0.06147629,-0.039891306,-0.04613691,0.022955455,-0.028250648,-0.02304508,-0.050288208,0.011023982,-0.025916588,0.029867114,0.025141472,0.016297469,0.01200569,0.074718945,0.048019666,0.09201944,0.11930947,0.14982787,0.1220439,0.1337551,0.15195249,0.0992117,0.08079154,0.022690512,-0.011101527,-0.03252735,-0.0347145,-0.02544898,-0.050134897,-0.04099376,0.03635262,0.027456634,0.33823007,0.850469,0.85542965,-0.098688565,-0.60147035,-0.33962744,-0.1667593,-0.07062051,-0.11806273,-0.08083429,-0.0879399,-0.11036941,-0.11573947,-0.12298925,-0.11169489,-0.103339195,-0.08727822,-0.08047964,-0.07870397,-0.06633696,-0.087313816,-0.06927751,-0.08748418,-0.06262441,-0.0644877,0.006632574,-0.010034754,0.009080539,0.029088674,0.06624324,0.006180553,-0.035742622,-0.06392267,-0.0924676,-0.103507824,-0.10749048,-0.1387725,-0.16377833,-0.118971124,-0.114273176,-0.14003213,-0.15112518,-0.14771806,-0.16132897,-0.18526937,-0.14183083,-0.13604073,-0.10990585,-0.114164084,-0.12953539,-0.12718874,-0.10765146,-0.1351497,-0.12170512,-0.13326153,-0.15850426,-0.1631147,-0.12467442,-0.1282838,-0.13356173,-0.12654659,-0.09913933,-0.11840192,-0.05921457,-0.09723216,-0.044903178,-0.09424399,-0.11965008,-0.1662204,-0.17808467,-0.14279133,-0.13007993,-0.1362303,-0.10369766,-0.11931755,-0.15453273,-0.13643129,-0.10879235,-0.120609954,-0.090784445,-0.081780955,-0.054417755,-0.06618944,-0.07614096,-0.10860655,-0.120121,-0.10102913,-0.12273641,-0.08919673,-0.108307675,-0.07987473,-0.09582699,-0.1022053,-0.06768123,-0.06820083,-0.0783995,-0.013185671,-0.02078178,-0.05048156,-0.04868839,-0.02962332,-0.034733023,-0.008994426,-0.0019520529,-0.034667797,0.0321992,0.033748027,0.056323428,0.058998454,0.085198544,0.078201935,0.11063494,0.14877181,0.16808148,0.1189535,0.082705855,-0.025854167,-0.040238407,-0.06591007,-0.06263028,-0.052000813,-0.024053851,-0.0070052785,0.030383699,0.036212265,0.3634615,0.8254267,0.8486514,-0.04622845,-0.5442334,-0.35428795,-0.19442509,-0.14911474,-0.14766131,-0.12892154,-0.1304966,-0.12356311,-0.122322805,-0.13733834,-0.106766425,-0.14197062,-0.12889953,-0.14778535,-0.1324365,-0.118998714,-0.1209219,-0.106424525,-0.10730064,-0.12738833,-0.10832229,-0.0779891,-0.048742782,-0.027290134,0.04170966,0.029685255,0.017090496,-0.068859994,-0.11480078,-0.10129654,-0.09231964,-0.1263014,-0.101044126,-0.15053771,-0.06995024,-0.112709865,-0.12932454,-0.37088737,-0.24644622,-0.12819079,-0.19474345,-0.29970843,-0.3639996,-0.090747155,-0.16646604,-0.18324931,-0.19681266,0.32811198,0.5695683,0.43065143,0.03647513,-0.5007096,-0.26403582,-0.17923181,-0.045339607,0.20063245,0.25625217,-0.09509335,-0.25384125,-0.09519694,-0.20283028,-0.26624507,-0.16259116,-0.08151831,-0.113894984,-0.054269142,-0.022885256,-0.0062421598,-0.08690425,-0.13004838,-0.032514736,-0.07319006,-0.014982542,0.23264007,0.6827759,0.78666306,0.09646442,-0.49814433,-0.4460059,-0.18894616,-0.08525617,-0.053083654,-0.301375,-0.2780574,-0.18506825,-0.23030716,-0.2131686,-0.205569,-0.2658488,-0.026435928,-0.12536089,-0.113601595,-0.547099,0.06066876,-0.2447863,-0.7354129,0.16932487,0.54838514,0.35558107,-0.6879894,-0.76976824,-0.32846186,-0.11432844,-0.33583012,-0.18811275,-0.20251381,-0.21234237,-0.4644627,-0.44795206,-0.37058616,-0.32989147,-0.24343601,-0.1525395,-0.05438446,-0.18182065,-0.23547219,-0.16480161,-0.20049116,-0.15600838,-0.15774068,-0.14979954,-0.57716024,-0.99441034,-0.9941315,0.5805262,0.9569091,0.7480396,-0.42918897,-0.67663276,-0.4922705,-0.5963125,-0.34987998,-0.2579973,-0.30725676,-0.28736758,-0.18191306,-0.29372242,-0.27065235,-0.27486792,-0.19019917,-0.17128985,-0.20998041,-0.05534925,-0.10997927,-0.056162104,0.012927494,-0.05772963,-0.15909065,-0.015858253,-0.1082012,-0.18493754,-0.045166597,-0.293952,-0.3243739,-0.20687346,0.429486,0.81286633,0.6966559,0.056688074,-0.7339611,-0.63150626,-0.34096885,-0.44944686,-0.44937158,-0.30951768,-0.39100263,-0.40486303,-0.41371885,-0.0012306713,-0.24709739,-0.15346801,-0.2817253,-0.0206816,0.06059305,-0.055524163,-0.20925996,-0.2526676,-0.089726344,-0.048901204,0.0057109417,0.4237713,0.62699044,0.047859304,-0.3753378,-0.2137271,-0.1027167,-0.19705546,-0.11393443,-0.28885734,-0.10739033,-0.07264564,-0.107971616,0.03758187,-0.15323885,-0.1832844,-0.20447257,-0.1834646,-0.30770704,-0.035890803,0.8892865,0.9472728,0.087227255,-0.75080943,-0.61824626,-0.49348,-0.30045006,-0.17150635,-0.3325419,-0.22750494,-0.19459817,-0.41199476,-0.40214175,-0.3235949,-0.4481267,-0.26268315,-0.22451717,-0.35314372,-0.6116516,-0.3106068,-0.3195312,-0.5985037,0.04796617,0.1652404,-0.048482653,-0.48033568,-0.5189384,-0.39628336,-0.3033735,-0.42763698,-0.12008581,0.18450177,-0.084853314,-0.5670251,-0.7210173,-0.3872195,-0.5135887,-0.32222438,-0.37716013,-0.20302169,-0.24161555,-0.32977614,-0.21091266,-0.17210321,-0.12376328,-0.24925801,-0.14315854,-0.35114595,-0.95751804,-0.9349145,0.31274348,0.7647256,0.37209806,-0.45121443,-0.6041219,-0.41947868,-0.4431592,-0.38279325,-0.36814716,-0.47387335,-0.3246755,-0.37269482,-0.33144182,-0.37836197,-0.40115747,-0.24456899,-0.28896576,-0.29034868,-0.13331774,-0.28319257,-0.15526208,-0.020237867,-0.30389476,-0.031804387,-0.031199645,-0.21419168,-0.21326657,-0.07921231,-0.41596973,-0.42320696,-0.32617524,0.6949636,0.9484618,0.8085823,-0.2734453,-0.9269179,-0.82314724,-0.42212752,-0.1760069,-0.064145,-0.1507371,-0.18781024,-0.20277719,-0.20199536,-0.14000472,-0.03644104,-0.16613479,-0.14952238,-0.15416272,-0.09855062,-0.14331529,-0.16027398,-0.1493057,-0.11932568,-0.06565213,0.11490904,0.2256358,0.35397083,-0.032606114,-0.26367047,-0.1630831,0.00010582805,0.009860739,0.037612483,-0.0064526116,-0.12398732,-0.16413572,-0.23760393,-0.14065358,-0.0735054,-0.16887833,-0.21795814,-0.07506918,-0.11448621,-0.06466276,0.32561368,0.35230255,-0.046131775,-0.2346171,-0.09598062,-0.08315777,-0.104547195,-0.11701738,-0.09574433,-0.19060953,-0.10538861,-0.15785553,-0.12785716,-0.08768051,-0.12128804,-0.09900228,-0.099526115,-0.075016126,0.013472986,0.021694003,0.037652534,-0.17724366,-0.08055452,-0.021768378,-0.15585683,-0.018156143,-0.02883156,-0.08397054,0.010701729,0.0072095497,0.15351357,0.30958834,0.05858122,-0.17028922,-0.23953204,-0.058767118,0.098042205,0.08035835,-0.029255668,0.04419538,-0.056835536,-0.107735805,-0.03199739,0.006779,0.033561107,0.021421373,-0.016665608,0.10317589,0.38347182,0.5295745,0.016606936,-0.33938786,-0.09548071,-0.08773853,-0.03223968,-0.09866772,-0.10431622,-0.15843949,-0.089764334,-0.049010914,-0.047394514,-0.13048115,-0.0028871102,-0.11333659,-0.17330779,-0.18037936,-0.03863318,0.011972805,0.025586603,0.0052558617,-0.058603175,-0.101508014,-0.15669525,0.015415522,-0.021795204,-0.07286903,-0.064159736,-0.017495906,-0.077789225,-0.0334136,-0.14729759,0.036337137,0.2695138,0.23079804,0.033832066,-0.33037806,-0.25583324,-0.23341568,-0.1512023,-0.09101836,-0.11656034,-0.14898995,-0.10739073,-0.15517832,-0.10812283,-0.0747169,-0.14659353,-0.14606625,-0.13207138,-0.10381519,-0.13601418,-0.11420728,-0.13805008,-0.11843348,-0.08392928,-0.025824143,0.027643902,0.08632675,-0.051532704,-0.11528241,-0.0851773,-0.025901407,-0.06022187,-0.044015262,-0.07632478,-0.14364564,-0.12898634,-0.17409143,-0.14849414,-0.11438666,-0.14275144,-0.19795012,-0.11499766,-0.11936565,-0.12168677,0.015507153,0.024415838,-0.09234177,-0.10772383,-0.07459053,-0.040335935,-0.089163266,-0.09708376,-0.090099685,-0.12701218,-0.11152117,-0.09844615,-0.12640917,-0.11182361,-0.10727611,-0.08647503,-0.09183885,-0.046703085,0.033551425,0.0015465576,-0.0019456141,-0.07326705,-0.05479605,-0.008398755,-0.053597055,0.018875523,0.0010294165,-0.018247554,0.053415496,0.05396669,0.10917671,0.17622301,0.06673467,0.03970926,0.0041870526,0.101298675,0.103186294,0.06088255,-0.011728109,0.011000301,-0.0054272437,-0.034788553,0.013784733,0.035467926,0.014938121,0.05060997,0.027346058,0.2315255,0.69822615,0.740524,-0.04751738,-0.4632353,-0.22187223,-0.07858119,-0.030253077,-0.07503043,-0.05849726,-0.066172116,-0.046998624,-0.044734124,-0.06925952,-0.08788137,-0.046554767,-0.082498215,-0.10356615,-0.09482099,-0.040540874,-0.0039747446,-0.021300187,-0.04321797,-0.047338128,-0.061976623,-0.05612788,-0.0049524745,-0.027314274,-0.01271696,-0.01406433,-0.018291192,-0.050457243,-0.03651219,-0.12030185,-0.07373324,0.0014671672,-0.00653809,-0.043156724,-0.16208187,-0.15485774,-0.16104075,-0.16251136,-0.12762001,-0.12679772,-0.17558444,-0.12522805,-0.14145839,-0.123847485,-0.106798604,-0.14683414,-0.13115719,-0.11329558,-0.10686305,-0.12015458,-0.13041328,-0.1518239,-0.14319815,-0.12653494,-0.09827778,-0.09246759,-0.06775629,-0.07011496,-0.09209282,-0.07019759,-0.062074605,-0.07175519,-0.078820445,-0.12813006,-0.14895079,-0.14822628,-0.1463568,-0.14307861,-0.1368803,-0.11423555,-0.15376715,-0.13090746,-0.13390525,-0.11355898,-0.1076421,-0.07981842,-0.103363305,-0.08112671,-0.08219904,-0.072574496,-0.096355505,-0.09261739,-0.09159535,-0.12218584,-0.1020536,-0.09572188,-0.11205142,-0.10913999,-0.10549614,-0.08825772,-0.08503688,-0.077339925,-0.0077783866,-0.03352803,-0.026874812,-0.05746817,-0.030314047,-0.03732077,-0.014388468,-0.00022423267,-0.006315557,0.013004894,0.057182986,0.057714142,0.07103097,0.090723,0.07194989,0.110898286,0.10919826,0.15188307,0.09746946,0.06075294,-0.020241652,-0.02610489,-0.0501874,-0.05284806,-0.022392333,-0.00091598334,0.00844235,0.03624667,0.030555975,0.3019569,0.774866,0.791876,-0.038095094,-0.50113666,-0.28173906,-0.14816064,-0.11841139,-0.11748585,-0.1015638,-0.1185176,-0.09850177,-0.09499896,-0.09900889,-0.09953618,-0.092902355,-0.10816336,-0.12499041,-0.12692721,-0.077292025,-0.084213346,-0.07109686,-0.073001035,-0.07425269,-0.07349805,-0.04892054,-0.029666716,-0.02466334,0.022842132,0.02008887,0.0031438288,-0.05621156,-0.06134956,-0.08746393,-0.09387855,-0.10795395,-0.12967898,-0.15765274,-0.11462438,-0.13038231,-0.14399345,-0.1583249,-0.13566607,-0.13198376,-0.17506471,-0.12926073,-0.14040291,-0.12508681,-0.11659052,-0.14702265,-0.12927093,-0.11103939,-0.10888322,-0.1142263,-0.13468787,-0.15355057,-0.14656933,-0.13530551,-0.114967525,-0.1043142,-0.08915972,-0.08077282,-0.09485263,-0.06689931,-0.06528116,-0.07058538,-0.083201796,-0.12780824,-0.14989227,-0.15555471,-0.1376152,-0.14132687,-0.14067936,-0.106216915,-0.1339184,-0.13313927,-0.13171355,-0.10961162,-0.11959941,-0.08708779,-0.105260335,-0.07727703,-0.077247515,-0.07294688,-0.089660846,-0.09103836,-0.09383622,-0.12271547,-0.10489088,-0.09217485,-0.101069,-0.103749834,-0.097532585,-0.07477292,-0.076501474,-0.07551851,-0.012656278,-0.025620433,-0.038454678,-0.048690107,-0.023832314,-0.036537006,-0.0075236913,-0.00514455,-0.016726885,0.014711876,0.05327419,0.061271213,0.073920384,0.09266229,0.08761761,0.111999474,0.12469354,0.1558003,0.10099656,0.06605895,-0.016598983,-0.03765989,-0.05657897,-0.059121236,-0.037539754,-0.021947913,0.0014189173,0.029457064,0.02776507,0.32144943,0.79896,0.81322384,-0.0427163,-0.51970476,-0.3076265,-0.16082247,-0.13259868,-0.12835002,-0.11291341,-0.12485524,-0.11180448,-0.10146594,-0.10861104,-0.09937536,-0.10482627,-0.10758213,-0.12214398,-0.12537315,-0.08982538,-0.09371799,-0.08128602,-0.07911161,-0.08085788,-0.075357035,-0.05084444,-0.036570065,-0.018625835,0.029153116,0.030005898,0.012808527,-0.051109374,-0.07029376,-0.0830249,-0.09425003,-0.12247076,-0.13162684,-0.17107145,-0.10027553,-0.12067681,-0.13640983,-0.15359357,-0.123558775,-0.1305198,-0.1476169,-0.10163877,-0.12402019,-0.12769295,-0.11313916,-0.15345663,-0.1364636,-0.12318096,-0.10782253,-0.10507753,-0.13677251,-0.14561021,-0.13134618,-0.1520628,-0.11338791,-0.10769181,-0.072853744,-0.07868924,-0.07352878,-0.07471344,-0.04822212,-0.09179514,-0.09488077,-0.1222247,-0.13660626,-0.15213235,-0.118108235,-0.13973433,-0.13560557,-0.110133104,-0.12735072,-0.13535911,-0.12967192,-0.118562646,-0.12352366,-0.108877465,-0.10546686,-0.08157019,-0.06468653,-0.06914234,-0.07792743,-0.08317811,-0.08448689,-0.12007401,-0.11514874,-0.09456656,-0.105242796,-0.11017358,-0.1024545,-0.0678313,-0.06021533,-0.058814317,0.008013063,-0.022312133,-0.0331081,-0.047319904,-0.007811669,-0.039878692,0.0045990613,0.008461224,0.00033589453,0.012522124,0.06430616,0.062173657,0.08211277,0.11182063,0.11934209,0.121715,0.13351156,0.15365624,0.100650154,0.07717795,0.006316324,-0.026602332,-0.04500869,-0.048170038,-0.030620262,-0.033019923,-0.012874085,0.036444485,0.026829114,0.32875487,0.8284908,0.83559275,-0.07086488,-0.5656441,-0.32387334,-0.16083351,-0.09915155,-0.11605563,-0.09818059,-0.1056797,-0.10952056,-0.099338114,-0.10647047,-0.09804069,-0.096431136,-0.09020214,-0.0987342,-0.10338785,-0.07510282,-0.087598026,-0.07314361,-0.07587449,-0.06903361,-0.06897461,-0.021173332,-0.023190679,-0.001963255,0.02964425,0.051629584,0.011608953,-0.038320735,-0.062126167,-0.082227215,-0.1073211,-0.12715393,-0.13988365,-0.16672173,-0.10317862,-0.111455016,-0.13848817,-0.15178868,-0.13438742,-0.15199625,-0.18467863,-0.13265055,-0.13195622,-0.12148207,-0.11618366,-0.13719787,-0.12153362,-0.105978064,-0.11915596,-0.1212198,-0.13556357,-0.14814998,-0.15153842,-0.12218762,-0.12857029,-0.12476402,-0.124507986,-0.09356444,-0.10608252,-0.05893379,-0.084489286,-0.05024087,-0.09248717,-0.11915406,-0.1606692,-0.17247166,-0.14408414,-0.13834402,-0.14278062,-0.10801737,-0.123989075,-0.1413482,-0.13780968,-0.11347584,-0.136045,-0.10799876,-0.09702095,-0.05962918,-0.060696192,-0.07166799,-0.09468019,-0.10208339,-0.093767434,-0.12902279,-0.102898054,-0.10084827,-0.087235644,-0.09218397,-0.09844409,-0.06960029,-0.07358131,-0.07357212,-0.009513909,-0.02372615,-0.043899182,-0.041710544,-0.029668303,-0.049088497,-0.010886067,0.0011984252,-0.017425537,0.036353465,0.046651814,0.06759228,0.060321204,0.084340654,0.07906359,0.12349624,0.14518356,0.16630232,0.112964496,0.08298413,-0.017290037,-0.035248265,-0.062309742,-0.05971603,-0.053546123,-0.027677437,-0.006414541,0.035909556,0.03863671,0.36513844,0.83591366,0.85460794,-0.059757374,-0.56412256,-0.36139497,-0.17880127,-0.14077857,-0.1403282,-0.12991162,-0.13212746,-0.1211059,-0.11419053,-0.12311403,-0.09501336,-0.11940544,-0.11450338,-0.12550767,-0.1208872,-0.108207434,-0.10579319,-0.095647514,-0.09463079,-0.108719125,-0.097614005,-0.07938596,-0.04237768,-0.0217741,0.03099099,0.033019155,0.011020738,-0.067656614,-0.101238035,-0.10471293,-0.102202475,-0.14172792,-0.11557535,-0.15678106,-0.072908305,-0.11199399,-0.13384898,-0.16293585,-0.14224827,-0.17701097,-0.21004696,-0.14958179,-0.14238268,-0.13311267,-0.10976379,-0.15061949,-0.12124537,-0.14392558,-0.11041168,-0.103482425,-0.12799548,-0.120484985,-0.10828765,-0.11032909,-0.09361888,-0.08567765,-0.05694288,-0.08057948,-0.068614475,-0.06547143,-0.0522865,-0.07559776,-0.08166828,-0.103622824,-0.14227936,-0.13885081,-0.14341769,-0.14697444,-0.14566043,-0.14245261,-0.15188396,-0.15276842,-0.14338924,-0.1340478,-0.13670966,-0.124119,-0.13568343,-0.0997643,-0.042702526,-0.06675905,-0.061822988,-0.06631179,-0.10018542,-0.15192504,-0.15984201,-0.11748992,-0.11112711,-0.12367936,-0.09315926,-0.0697471,-0.058866978,-0.045207508,0.013083594,-0.01725003,-0.0067608235,-0.046976466,-0.0013403733,-0.043269668,-0.010418752,0.014428396,-0.0052277707,0.014156996,0.074252,0.055063095,0.09884902,0.1150693,0.13043293,0.12330784,0.14129992,0.15040278,0.12708105,0.08207514,0.02929118,0.0011197249,-0.028348703,-0.04756951,-0.03671914,-0.062954575,0.002115969,0.05206163,0.040015507,0.3638822,0.85347974,0.8637497,-0.11396482,-0.5996313,-0.35160455,-0.1343091,-0.0768456,-0.09844975,-0.09760836,-0.10853562,-0.106843255,-0.1083789,-0.09222082,-0.060431752,-0.058983233,-0.0776358,-0.07621616,-0.084843785,-0.07296466,-0.1025868,-0.07499921,-0.075827405,-0.07456488,-0.08534659,-0.053580664,-0.01987941,0.005037525,-0.020353803,0.024236778,-0.04377297,-0.061262645,-0.10040094,-0.11711647,-0.108438,-0.141624,-0.16003124,-0.17317882,-0.11354105,-0.117796615,-0.14919934,-0.16441901,-0.13590825,-0.15735227,-0.17233862,-0.12450336,-0.13606398,-0.11725997,-0.093900986,-0.14875965,-0.119519085,-0.12560156,-0.11735704,-0.10801216,-0.13076735,-0.12838481,-0.12074322,-0.13372023,-0.10229478,-0.1219279,-0.07764779,-0.068995796,-0.07372867,-0.067035295,-0.056976985,-0.077568,-0.09382921,-0.12640846,-0.15151115,-0.15431155,-0.13266437,-0.14317437,-0.14957286,-0.133845,-0.1394828,-0.16145214,-0.14942837,-0.14278099,-0.14826229,-0.11581724,-0.1090614,-0.089653336,-0.060143657,-0.07896289,-0.08855953,-0.09192648,-0.09188346,-0.13274644,-0.12574887,-0.12178208,-0.111248486,-0.124449864,-0.10326345,-0.077487394,-0.065036245,-0.053084053,-0.00035635382,-0.021910163,-0.024597498,-0.053612906,-0.010905418,-0.038033217,-0.0061864355,0.017982533,0.00221226,0.027731687,0.06560507,0.05162739,0.07531515,0.09659774,0.10943933,0.12901695,0.13135998,0.15268375,0.116929784,0.07767647,0.009985017,-0.015207798,-0.03637944,-0.044225536,-0.025309553,-0.032119248,-0.005518954,0.031436447,0.03642827,0.3478058,0.83930385,0.8523549,-0.08539638,-0.577342,-0.34142527,-0.16372177,-0.10473925,-0.119801365,-0.10490289,-0.10663473,-0.10752473,-0.10949279,-0.10361511,-0.09001974,-0.09639568,-0.09434186,-0.1053019,-0.09585958,-0.079301134,-0.09651351,-0.08123586,-0.08648701,-0.083743945,-0.09172212,-0.04866901,-0.03533047,-0.01502255,0.0060918997,0.036997143,-0.02529686,-0.056958184,-0.0879724,-0.11269621,-0.106433235,-0.13582882,-0.14850919,-0.16976495,-0.10832861,-0.11701661,-0.14229134,-0.15100002,-0.12620643,-0.14552237,-0.14903876,-0.10099397,-0.120071,-0.12085047,-0.100653335,-0.15307985,-0.13019828,-0.12669308,-0.11661591,-0.10392921,-0.13930579,-0.1361859,-0.12936634,-0.14742504,-0.10739239,-0.11764089,-0.07783916,-0.07069936,-0.070878595,-0.07362241,-0.051959325,-0.08694036,-0.09884085,-0.12395788,-0.14434491,-0.15353778,-0.11865467,-0.13837044,-0.13772151,-0.12259649,-0.13285755,-0.14843677,-0.1388642,-0.13340457,-0.14172368,-0.12113123,-0.10915788,-0.08275747,-0.06028365,-0.07326589,-0.09083239,-0.08689342,-0.0936374,-0.12487923,-0.12752354,-0.11493527,-0.10914522,-0.11400615,-0.10385097,-0.070361994,-0.06313719,-0.051191464,0.011221337,-0.02276703,-0.029658927,-0.047995187,-0.009208423,-0.043714076,-0.0007424799,0.016922832,0.0053007025,0.023781186,0.06711761,0.054068487,0.07256284,0.10369388,0.11590839,0.13079993,0.13848269,0.15310481,0.11047824,0.0886018,0.010520571,-0.016506568,-0.045469407,-0.047840703,-0.035451397,-0.034795422,-0.011305929,0.034385197,0.034184348,0.35053867,0.84503555,0.8549468,-0.083986156,-0.5875916,-0.3471052,-0.16776747,-0.10061915,-0.11758798,-0.10188173,-0.09965354,-0.11060973,-0.1066118,-0.105097964,-0.09743982,-0.10457171,-0.08843792,-0.10331718,-0.09130676,-0.07968121,-0.090736225,-0.07551517,-0.08238073,-0.077053726,-0.08091294,-0.038449947,-0.029913245,-0.009984812,0.015320671,0.050852913,-0.002079074,-0.047387313,-0.07531649,-0.10149257,-0.10504665,-0.1362824,-0.14145964,-0.16204312,-0.101363905,-0.10708968,-0.13837567,-0.14781354,-0.12050572,-0.1418619,-0.13905023,-0.10016255,-0.11806901,-0.12603338,-0.10544066,-0.1513571,-0.13359667,-0.13401368,-0.11838604,-0.107459344,-0.13984166,-0.13990206,-0.12793563,-0.15733986,-0.11190789,-0.12314079,-0.08010552,-0.08101278,-0.06980539,-0.07965555,-0.054365307,-0.087944575,-0.095649034,-0.11826028,-0.13865991,-0.15934196,-0.11881887,-0.13973472,-0.13118862,-0.11721051,-0.12633374,-0.1470887,-0.13108039,-0.12654752,-0.13513903,-0.11581542,-0.098253615,-0.067031294,-0.050800245,-0.067499556,-0.082618296,-0.09198374,-0.08894271,-0.11759339,-0.12218504,-0.10873404,-0.100952804,-0.109065674,-0.09610116,-0.06445197,-0.059029706,-0.05290998,0.005890731,-0.021973897,-0.02883801,-0.0455223,-0.0072077843,-0.037975196,0.0034375275,0.01550395,0.0039037715,0.019572496,0.06662263,0.048943464,0.0720263,0.10305423,0.12277908,0.13112564,0.14246972,0.15342115,0.108980194,0.08586737,0.012786595,-0.015142441,-0.04449794,-0.047951374,-0.03948509,-0.045001175,-0.018467812,0.031176077,0.033999447,0.35352933,0.84917617,0.859761,-0.08791314,-0.596032,-0.35505578,-0.17245318,-0.096422724,-0.11674598,-0.09959361,-0.10228567,-0.11587801,-0.10937268,-0.1083158,-0.11061116,-0.110668205,-0.09451012,-0.10221938,-0.091973655,-0.083848305,-0.09546446,-0.07956763,-0.0796283,-0.084234275,-0.07941066,-0.03762856,-0.026980426,-0.009422778,0.022346977,0.051424257,0.0077063623,-0.04390905,-0.07271998,-0.09309299,-0.10355403,-0.13680167,-0.14838931,-0.16211171,-0.09707605,-0.10218276,-0.13731658,-0.14627986,-0.12445116,-0.14489304,-0.1414776,-0.0971827,-0.10627672,-0.12350129,-0.1014358,-0.14098178,-0.13585058,-0.13539834,-0.12333231,-0.10683003,-0.14533776,-0.13948193,-0.13158737,-0.15765192,-0.116705075,-0.12452164,-0.085313536,-0.08040525,-0.06688972,-0.07574872,-0.058226936,-0.087100856,-0.100216,-0.117155455,-0.13738443,-0.16054879,-0.118568026,-0.14057128,-0.12944102,-0.11578572,-0.12202067,-0.14606054,-0.13258222,-0.12617789,-0.13998601,-0.11864456,-0.096344054,-0.0634131,-0.049987417,-0.07292124,-0.088449515,-0.089801006,-0.09006064,-0.115089156,-0.12527516,-0.11070496,-0.10325995,-0.106063366,-0.09755709,-0.0667491,-0.05665157,-0.046019,0.014035145,-0.023076657,-0.025574746,-0.043429255,-0.017040882,-0.047035784,0.0035036881,0.01802369,0.005100712,0.025116783,0.067346245,0.053805865,0.07184718,0.09692049,0.117172934,0.13055365,0.14409353,0.15887544,0.11377176,0.092560716,0.010086543,-0.012582893,-0.045673847,-0.045476183,-0.039376993,-0.044902973,-0.024073595,0.032125343,0.031912927,0.35746557,0.85538137,0.8666507,-0.08978484,-0.6053933,-0.363618,-0.17610703,-0.095272325,-0.123869106,-0.10473344,-0.10070212,-0.11977134,-0.113970526,-0.10973085,-0.10661016,-0.11300938,-0.097621806,-0.10334749,-0.08875377,-0.08001003,-0.09859163,-0.08281622,-0.08262675,-0.08854496,-0.08464231,-0.04060085,-0.024538726,-0.0092942,0.02075246,0.050350662,0.0035066123,-0.04981139,-0.077467956,-0.094078556,-0.10197008,-0.13825116,-0.1417921,-0.15112127,-0.089362055,-0.09820366,-0.13921922,-0.13660295,-0.12421188,-0.14923681,-0.1695359,-0.118427016,-0.11680932,-0.1231581,-0.114801586,-0.13278951,-0.1264836,-0.109329745,-0.12403713,-0.11555828,-0.14475943,-0.14647634,-0.15092088,-0.12813628,-0.11928093,-0.12140427,-0.11454371,-0.09621033,-0.09689288,-0.06568558,-0.0868336,-0.060868632,-0.091922946,-0.10624835,-0.15009896,-0.17161283,-0.13691066,-0.13455953,-0.13679506,-0.1092934,-0.11852993,-0.14277767,-0.13789639,-0.11948189,-0.14912096,-0.11964671,-0.09888488,-0.058384676,-0.049504448,-0.06345576,-0.08782868,-0.09753052,-0.09816354,-0.128745,-0.12433076,-0.10826935,-0.0878717,-0.093539506,-0.09653783,-0.064845696,-0.06675176,-0.0626573,0.0049487525,-0.018043948,-0.040883802,-0.032333344,-0.029556097,-0.045913067,-0.008076595,0.010221489,-0.016201366,0.036829196,0.05135524,0.0627959,0.06506676,0.08971653,0.09789501,0.13015881,0.15848826,0.16450262,0.12625968,0.09708085,-0.0016387908,-0.027492078,-0.058046285,-0.06456266,-0.06534438,-0.050380312,-0.01886952,0.03474623,0.037015345,0.38042188,0.8539994,0.87103814,-0.08023163,-0.594969,-0.3801619,-0.17677623,-0.118340306,-0.12447113,-0.12293991,-0.12772486,-0.12192985,-0.11514224,-0.118973754,-0.10009599,-0.12197937,-0.11311898,-0.11926693,-0.108835734,-0.10080662,-0.10321278,-0.09253545,-0.08794291,-0.112681225,-0.100432806,-0.07621731,-0.036271203,-0.018018648,0.025923822,0.044388667,0.019316457,-0.058086727,-0.09822124,-0.10390894,-0.10406947,-0.14102425,-0.12678927,-0.14350198,-0.062178575,-0.09686942,-0.13473564,-0.15137133,-0.11380095,-0.13466807,-0.12301031,-0.07796437,-0.103745244,-0.12898582,-0.113485344,-0.14813903,-0.14297804,-0.1419406,-0.11215007,-0.10672545,-0.14601308,-0.14301965,-0.11733497,-0.167121,-0.10867653,-0.10762606,-0.054173503,-0.08206493,-0.054028172,-0.085417174,-0.0511282,-0.10840008,-0.10514593,-0.11712748,-0.12615776,-0.14918932,-0.1056265,-0.13862514,-0.12925091,-0.11871876,-0.11654761,-0.14450185,-0.13116571,-0.1325921,-0.12346783,-0.12261435,-0.096711494,-0.075647645,-0.04867759,-0.066563345,-0.07075942,-0.07935615,-0.076257475,-0.11858797,-0.13232803,-0.10720227,-0.10837325,-0.11934837,-0.09572223,-0.057596534,-0.042881086,-0.042422302,0.026842596,-0.022150714,-0.021807171,-0.046150204,0.0037894328,-0.037991874,0.01776302,0.022862839,0.016143125,0.019968543,0.07538791,0.054397352,0.089630805,0.11478051,0.14450592,0.12860791,0.14543785,0.1525393,0.11272759,0.093505494,0.02784992,-0.008362865,-0.042060256,-0.04562177,-0.042150524,-0.06494117,-0.036714587,0.035304863,0.026599184,0.35235488,0.86120135,0.86856097,-0.10383585,-0.6189776,-0.35809326,-0.17103395,-0.07203818,-0.115130715,-0.09427774,-0.0986775,-0.116672814,-0.11460632,-0.12045939,-0.10892169,-0.10286137,-0.08600109,-0.08344017,-0.080562614,-0.069516204,-0.08817144,-0.0692198,-0.08135445,-0.06726197,-0.07122046,-0.009653281,-0.015154714,0.00566691,0.026244827,0.06572261,0.010830913,-0.038182855,-0.06649489,-0.09070304,-0.102364466,-0.121745005,-0.14556104,-0.15988189,-0.10327598,-0.10488946,-0.13976984,-0.14416672,-0.14218085,-0.166438,-0.18265752,-0.13755137,-0.12683335,-0.10541963,-0.10827065,-0.12290232,-0.1183257,-0.10972737,-0.13535403,-0.12412605,-0.1373254,-0.15457863,-0.16010232,-0.1192836,-0.12380021,-0.13845804,-0.12849052,-0.10183437,-0.11508499,-0.0572119,-0.10012121,-0.044252705,-0.094312504,-0.11399236,-0.16814615,-0.17801064,-0.14443734,-0.1294089,-0.1350717,-0.10487984,-0.11801392,-0.1575738,-0.13556728,-0.11609488,-0.13374357,-0.104189485,-0.08391956,-0.05159027,-0.06344487,-0.0716207,-0.10934149,-0.12282757,-0.10239233,-0.12575541,-0.098572,-0.11392438,-0.075402305,-0.09875584,-0.10673317,-0.06869485,-0.06493653,-0.06892317,-0.007934814,-0.021757616,-0.05197531,-0.04432698,-0.030473331,-0.040296897,-0.013065793,0.0010585892,-0.030836795,0.037999306,0.034745272,0.05425613,0.054307673,0.084899455,0.08062595,0.118014105,0.15965182,0.17467713,0.12873732,0.091982245,-0.018641952,-0.03263604,-0.064192474,-0.060740873,-0.059093464,-0.029993923,-0.010145941,0.026105408,0.042332683,0.38245428,0.84294295,0.8673388,-0.059561506,-0.56827855,-0.37998503,-0.19509254,-0.14498124,-0.14780004,-0.13082354,-0.1290393,-0.12680955,-0.12174436,-0.13466579,-0.10671271,-0.14052723,-0.12704317,-0.14142182,-0.124397285,-0.12194729,-0.119277604,-0.11202091,-0.11278095,-0.13604425,-0.12029642,-0.09177043,-0.04918954,-0.030416224,0.038618386,0.033924565,0.010230183,-0.07501436,-0.12709557,-0.11397402,-0.09847881,-0.12992226,-0.101768814,-0.14310814,-0.06377724,-0.106284395,-0.1284366,-0.1667949,-0.1488306,-0.18337157,-0.22770314,-0.16772209,-0.14821318,-0.13364486,-0.11185686,-0.14796759,-0.11975057,-0.14228433,-0.1125299,-0.11044641,-0.12294691,-0.122727595,-0.10691079,-0.103869945,-0.10021913,-0.08587457,-0.07696545,-0.08265488,-0.077108726,-0.05668143,-0.05833561,-0.06259527,-0.08269837,-0.110566705,-0.15295021,-0.14478913,-0.15339597,-0.15236492,-0.15538596,-0.1475433,-0.15238166,-0.15229298,-0.1483243,-0.13685688,-0.13693477,-0.11963222,-0.13757236,-0.10196331,-0.039419968,-0.06512114,-0.05795709,-0.068785146,-0.10250858,-0.16339043,-0.16639411,-0.11550912,-0.108527236,-0.121218264,-0.08451997,-0.0658112,-0.058851235,-0.04637982,0.00015936792,-0.024475975,-0.019702654,-0.044435047,-0.01229073,-0.047186732,-0.01641561,0.020824363,-0.0072316676,0.023566803,0.06883982,0.057738554,0.09818436,0.10206534,0.12023179,0.124104254,0.13988885,0.14894672,0.12423372,0.07703135,0.025102584,-0.005428472,-0.030895453,-0.049652092,-0.037367452,-0.06419428,-0.0004505142,0.05401233,0.041427873,0.37415752,0.8608361,0.872197,-0.1155636,-0.60379136,-0.36673206,-0.13384086,-0.08959721,-0.1088659,-0.11254089,-0.12062102,-0.112495035,-0.11316252,-0.094830945,-0.05325162,-0.060674068,-0.08021583,-0.07536595,-0.08665713,-0.08207516,-0.104743585,-0.07974262,-0.08356351,-0.0792781,-0.087956846,-0.06598052,-0.02506088,0.0016490577,-0.023444101,0.014080452,-0.05313965,-0.07335713,-0.1139829,-0.13238855,-0.10529286,-0.1384709,-0.14677702,-0.17368662,-0.10912946,-0.120471805,-0.15095448,-0.16325083,-0.1472986,-0.15426612,-0.1885904,-0.14874251,-0.14911672,-0.11755907,-0.11312043,-0.14606935,-0.12456888,-0.11592696,-0.1215517,-0.1142491,-0.12605813,-0.14637965,-0.13781735,-0.12432672,-0.1120251,-0.1213032,-0.100894354,-0.08314504,-0.09655824,-0.056393996,-0.07663525,-0.061931737,-0.08636277,-0.12567838,-0.16055568,-0.16007417,-0.14312568,-0.13818143,-0.15028958,-0.121913165,-0.13252217,-0.15422656,-0.1413423,-0.1218587,-0.13585818,-0.09366955,-0.10269748,-0.07851998,-0.062916756,-0.07500568,-0.08525506,-0.09678564,-0.10126039,-0.13672455,-0.116552554,-0.11148664,-0.10026121,-0.112061806,-0.09507133,-0.06861816,-0.06561699,-0.06665955,-0.019027222,-0.022359801,-0.044094227,-0.047158483,-0.019957904,-0.029308422,-0.0072574005,0.006552378,-0.02359704,0.024114572,0.045987017,0.05381621,0.06917211,0.083475076,0.08857192,0.11518946,0.13326102,0.15141383,0.113640256,0.06893208,-0.008458195,-0.034097094,-0.056951582,-0.06131091,-0.043021854,-0.035846014,-0.0013171649,0.02357265,0.03178782,0.34593785,0.8196332,0.83733636,-0.06355631,-0.5421852,-0.33567274,-0.16926757,-0.13330163,-0.13019897,-0.11987678,-0.1267743,-0.11742127,-0.11187625,-0.11218812,-0.093022205,-0.1116125,-0.11062893,-0.1226372,-0.11366497,-0.099748984,-0.101703025,-0.08913849,-0.0896449,-0.09625903,-0.08739715,-0.06422267,-0.046220932,-0.021808622,0.01881934,0.025897995,-0.0063900854,-0.061010133,-0.09410598,-0.10557364,-0.09773395,-0.13195479,-0.1343121,-0.1703373,-0.09164678,-0.11974922,-0.1368026,-0.14821717,-0.11980993,-0.13431557,-0.15353292,-0.103327736,-0.12354804,-0.1304767,-0.11372781,-0.15378198,-0.13228631,-0.12146636,-0.10743321,-0.09855712,-0.14338721,-0.1382635,-0.121512465,-0.14945951,-0.10521446,-0.10186787,-0.062592156,-0.07691015,-0.0701752,-0.078848876,-0.051300664,-0.09323909,-0.0956794,-0.12100253,-0.13665734,-0.14626878,-0.11181132,-0.13214718,-0.13290063,-0.1183332,-0.12576364,-0.13848042,-0.13902304,-0.12823425,-0.13514283,-0.11652945,-0.114640854,-0.08543397,-0.056319203,-0.06550169,-0.07368454,-0.0779033,-0.08892499,-0.1276662,-0.13199255,-0.10233372,-0.106133856,-0.111492865,-0.10017504,-0.060617313,-0.05974368,-0.054105356,0.013120264,-0.019993123,-0.032739732,-0.040673047,-0.00062894437,-0.035895873,0.0068240818,0.01383148,0.0016522913,0.019994013,0.070944965,0.05619786,0.083764434,0.111841954,0.13128541,0.1270579,0.14028503,0.14896612,0.11330342,0.088246666,0.01573618,-0.020953767,-0.04805436,-0.057728525,-0.04785071,-0.056505058,-0.018412115,0.035485446,0.02564458,0.34327868,0.84240323,0.85006666,-0.08704297,-0.5835512,-0.33965907,-0.16007856,-0.08894647,-0.10448513,-0.094470814,-0.106173955,-0.106889024,-0.10412688,-0.10667241,-0.09638995,-0.09812405,-0.08223812,-0.09286009,-0.094868615,-0.07037251,-0.08832004,-0.067833535,-0.07418652,-0.06815366,-0.07305736,-0.028113466,-0.023593603,0.0005189924,0.01721757,0.057998855,0.01062324,-0.034318946,-0.06277027,-0.09255819,-0.09930275,-0.12592788,-0.15188427,-0.17391536,-0.10460504,-0.10921679,-0.13811943,-0.15012728,-0.12842223,-0.13736995,-0.16147466,-0.115175106,-0.124252275,-0.12697026,-0.118460186,-0.1482875,-0.13702008,-0.11755718,-0.116584666,-0.109385535,-0.13818526,-0.15269172,-0.1405966,-0.14154622,-0.11793741,-0.11408328,-0.09226393,-0.08818742,-0.082905315,-0.06755251,-0.065230556,-0.080104314,-0.09257687,-0.12099988,-0.143168,-0.16206941,-0.12554774,-0.13714492,-0.13990346,-0.11610896,-0.124856435,-0.14350821,-0.13246965,-0.11682814,-0.13275847,-0.10590887,-0.1032656,-0.07484268,-0.060139075,-0.0685,-0.08116696,-0.08928171,-0.097560234,-0.1327039,-0.12722339,-0.10514678,-0.10465392,-0.10396506,-0.099393874,-0.06386104,-0.060116716,-0.061897334,0.0010747886,-0.026263734,-0.03979283,-0.04176661,-0.015510559,-0.038443405,0.0011840009,0.01109265,-0.005594113,0.025363456,0.05936992,0.061582,0.07697244,0.10134402,0.112909146,0.12522532,0.14593919,0.15874155,0.1102719,0.0852306,0.0012955321,-0.028274374,-0.056740604,-0.05785316,-0.046677727,-0.042045057,-0.018441478,0.034207534,0.028340122,0.35465986,0.84115684,0.85268533,-0.07864629,-0.57764727,-0.35004118,-0.17206399,-0.10863507,-0.11810205,-0.11165567,-0.115565,-0.11821057,-0.107488416,-0.11493834,-0.09832947,-0.11166773,-0.10053452,-0.11147603,-0.10770509,-0.08790934,-0.09542066,-0.0829756,-0.08261493,-0.0854686,-0.07942047,-0.04515108,-0.030547412,-0.008277424,0.027621554,0.050722934,0.015379631,-0.044851046,-0.07926856,-0.09410412,-0.09796765,-0.13066177,-0.13491538,-0.16270225,-0.087593645,-0.10933251,-0.13753271,-0.15815441,-0.13925882,-0.14617853,-0.15261668,-0.11514479,-0.119421296,-0.120557636,-0.113192365,-0.14486627,-0.14273635,-0.1300386,-0.12341102,-0.11226141,-0.13823713,-0.15404977,-0.1446765,-0.15683103,-0.1237718,-0.12706704,-0.0894744,-0.087758385,-0.081068255,-0.07228801,-0.059776004,-0.08191195,-0.10232879,-0.120377876,-0.14386703,-0.16958462,-0.122805946,-0.1349933,-0.13387594,-0.10809521,-0.119998544,-0.1509946,-0.131932,-0.11346474,-0.11307572,-0.091002196,-0.08585533,-0.07073313,-0.064387925,-0.07478281,-0.08863513,-0.09942003,-0.09357558,-0.122601084,-0.11155787,-0.10905921,-0.10235892,-0.10551441,-0.10068545,-0.062883124,-0.05141517,-0.06135925,-0.0010440606,-0.025619296,-0.0368577,-0.048775792,-0.0117219975,-0.033783246,0.0076985024,0.0055340147,-0.005643844,0.018613713,0.057690512,0.052420523,0.082381085,0.103052445,0.12266213,0.114827625,0.14272812,0.1604708,0.10127155,0.077740215,-0.0037673304,-0.029696452,-0.05288774,-0.052072275,-0.035069905,-0.0357351,-0.018867696,0.025181638,0.025838438,0.34677804,0.83710736,0.8486966,-0.066367246,-0.57114184,-0.34070134,-0.18135762,-0.1144044,-0.1312785,-0.1068413,-0.10506081,-0.11901298,-0.11316059,-0.118858494,-0.10944269,-0.12112611,-0.10819803,-0.11775768,-0.110813014,-0.09492328,-0.1083732,-0.09302699,-0.09536336,-0.09660366,-0.08131841,-0.0360872,-0.026693156,-0.005886128,0.038084403,0.051184304,0.013463134,-0.053361803,-0.0828035,-0.08614319,-0.09384254,-0.12622796,-0.12747636,-0.16616245,-0.100631386,-0.11255275,-0.1372395,-0.13193102,-0.11119187,-0.14465576,-0.17670909,-0.122898065,-0.11886765,-0.1327976,-0.12626252,-0.13955231,-0.12726319,-0.09801547,-0.11889337,-0.113649674,-0.14545383,-0.15302119,-0.1524056,-0.11586251,-0.12119886,-0.10226371,-0.11984575,-0.106052496,-0.11369729,-0.07031937,-0.097867206,-0.051586695,-0.08835702,-0.10407673,-0.15284237,-0.16573818,-0.14041509,-0.12707171,-0.14311813,-0.12011935,-0.1197788,-0.14056474,-0.14237975,-0.11659268,-0.14797011,-0.11673466,-0.09847539,-0.058340706,-0.03829965,-0.053401027,-0.06993166,-0.08739786,-0.08918271,-0.14565413,-0.13245608,-0.10769062,-0.08902204,-0.085196614,-0.08750012,-0.056553207,-0.070668064,-0.07333149,0.0022905853,-0.013577927,-0.042808652,-0.022873858,-0.022874907,-0.039078906,-0.0071912277,0.008596655,-0.024489028,0.040819246,0.047094,0.0758459,0.06471585,0.08641994,0.092678495,0.1351808,0.16537613,0.1593725,0.13257077,0.10936084,-0.0002089031,-0.020802097,-0.066073604,-0.07879467,-0.08521123,-0.06591109,-0.019681286,0.049137954,0.044097483,0.38938668,0.85557044,0.8752176,-0.08520846,-0.5943636,-0.39186987,-0.16633618,-0.1181924,-0.12167292,-0.13192278,-0.14205605,-0.12035042,-0.11503986,-0.12362034,-0.088673204,-0.114171445,-0.11295356,-0.10982695,-0.11282917,-0.10974915,-0.10322646,-0.08947318,-0.0841988,-0.11493305,-0.09583692,-0.08451408,-0.035825092,-0.016621934,0.018901868,0.046608366,0.0358565,-0.046683583,-0.095212154,-0.110364296,-0.1019207,-0.1425819,-0.13080892,-0.1503552,-0.049827747,-0.09414969,-0.12802017,-0.15425374,-0.1284038,-0.13224123,-0.14082764,-0.09219902,-0.109789066,-0.1289757,-0.12526593,-0.14846098,-0.15376072,-0.13319618,-0.11504913,-0.109861374,-0.14307667,-0.15207659,-0.12872672,-0.15501946,-0.119146764,-0.10296443,-0.06991336,-0.08502574,-0.06336012,-0.07266582,-0.055326834,-0.105509035,-0.10448943,-0.11981548,-0.13004075,-0.14922498,-0.10883572,-0.13277219,-0.13181539,-0.11666487,-0.11845717,-0.14089026,-0.13088344,-0.119048975,-0.11597508,-0.10718725,-0.10255071,-0.08245154,-0.062421136,-0.06662944,-0.06926649,-0.07648346,-0.08468947,-0.1272012,-0.13224587,-0.10488513,-0.11594283,-0.11375841,-0.099658266,-0.057013813,-0.04411513,-0.05296004,0.017074646,-0.028035764,-0.03218102,-0.042874828,-0.002137378,-0.034525745,0.016459139,0.018127823,0.0063052005,0.014415408,0.06324767,0.057381526,0.09066417,0.11351745,0.13856539,0.11981994,0.14599496,0.15538777,0.10452296,0.08724305,0.012832416,-0.02136769,-0.04947623,-0.05200314,-0.041988544,-0.056372017,-0.035537906,0.036474247,0.021031663,0.34469426,0.84543926,0.8519107,-0.09290257,-0.5889492,-0.34263918,-0.16372523,-0.085780814,-0.11661894,-0.095502265,-0.101776086,-0.11775415,-0.11400201,-0.11871735,-0.09789282,-0.102635235,-0.09134207,-0.093179815,-0.09387826,-0.07692099,-0.09128346,-0.07561352,-0.083461836,-0.07005864,-0.06384705,-0.008578783,-0.014309118,0.008840031,0.031889886,0.06439511,0.01914082,-0.03459355,-0.06646788,-0.08147323,-0.09823705,-0.11928937,-0.13739502,-0.16571969,-0.098258905,-0.111335196,-0.13818398,-0.14741689,-0.14054881,-0.16635789,-0.1852292,-0.14096127,-0.12981151,-0.10909522,-0.111213475,-0.12707694,-0.124629095,-0.1038248,-0.13435422,-0.13006723,-0.13476501,-0.16094393,-0.16197497,-0.11488523,-0.12796624,-0.13289708,-0.1311923,-0.10613109,-0.11818083,-0.05420399,-0.10165367,-0.041156717,-0.09250749,-0.11561678,-0.16886953,-0.17664972,-0.14938366,-0.12638937,-0.13686019,-0.104983784,-0.12316608,-0.1556013,-0.13856497,-0.110970095,-0.12832987,-0.0983341,-0.08397136,-0.05175603,-0.060107857,-0.069324836,-0.1030506,-0.122622445,-0.09736133,-0.12842892,-0.09702127,-0.115566134,-0.08031381,-0.09909695,-0.10752714,-0.07494127,-0.06677652,-0.07225858,-0.008947267,-0.022831662,-0.05001543,-0.043471854,-0.0319134,-0.038692836,-0.014008268,0.0034179178,-0.03182392,0.04026339,0.032439012,0.058461275,0.054465152,0.08126472,0.07290844,0.118069194,0.1572761,0.17431167,0.129316,0.09399318,-0.021101194,-0.032858577,-0.06728177,-0.06722042,-0.060529787,-0.027683083,-0.0082719,0.033743866,0.04261037,0.37687805,0.8356997,0.86114115,-0.056394573,-0.5581712,-0.3729851,-0.19003679,-0.14843403,-0.14724489,-0.13353147,-0.13165201,-0.12832922,-0.1248732,-0.1367101,-0.104139425,-0.1393818,-0.1308079,-0.14706704,-0.12620816,-0.1273273,-0.119356506,-0.11325826,-0.11266039,-0.13616352,-0.116728,-0.0906486,-0.0454594,-0.029713275,0.04038452,0.031375803,0.01606142,-0.07177491,-0.12126711,-0.11123905,-0.0990283,-0.12926303,-0.10144489,-0.14137521,-0.060848378,-0.108601,-0.12947133,-0.19096488,-0.19890462,-0.16713089,-0.2597637,-0.16828513,-0.22077912,-0.12772796,-0.12622593,-0.119933456,-0.10709965,-0.098799035,0.01409883,-0.046595074,-0.087269075,-0.18310608,-0.09061552,-0.080014475,-0.09141336,-0.02355369,-0.010452145,-0.084055156,-0.08761854,-0.024422685,-0.07371556,-0.10545452,-0.08409114,-0.16243541,-0.17409414,-0.13922058,-0.13881442,-0.16328745,-0.12839554,-0.12404891,-0.094245635,-0.09010067,-0.08676282,-0.076888435,0.09668988,0.17514768,-0.12004441,-0.20133555,-0.2189589,-0.10899057,-0.12789914,-0.14064735,-0.18310341,-0.20522949,-0.20716786,-0.10916121,-0.10926327,-0.19462481,-0.13194111,-0.08623638,-0.13398688,-0.10747066,-0.18321359,-0.05953607,-0.12937999,-0.1574933,-0.023342205,0.11409633,0.0666037,-0.15888542,-0.28674635,-0.078818634,0.021911046,-0.08553009,0.0019804174,-0.0007423067,0.04180254,-0.047403228,-0.0052669,0.057080593,0.059146766,-0.01759384,-0.0447038,-0.054055035,-0.07511206,-0.087489255,-0.06268232,-0.051439837,-0.048084054,-0.04697337,0.005341219,0.1552746,0.33925578,0.37943986,0.022226337,-0.16349141,-0.14184724,-0.18404396,-0.25627878,-0.20568277,-0.23919436,-0.19016407,-0.18111885,-0.20804878,-0.18908258,-0.13008587,-0.11824567,-0.15000771,-0.1327907,-0.15441205,-0.097831614,-0.13558252,-0.10925751,-0.113485865,-0.08991464,-0.11445775,-0.080961786,-0.051060233,-0.054539822,-0.0596255,-0.057624985,-0.07237925,-0.12436249,-0.17703013,-0.22224781,0.024675548,0.2513912,0.1625602,-0.087478325,-0.3516238,-0.2976147,-0.18547224,-0.14666143,-0.13276736,-0.13527226,-0.19942053,-0.1332532,-0.15356,-0.12894297,-0.13037921,-0.1537219,-0.13615496,-0.13747616,-0.10871961,-0.1239856,-0.12377888,-0.14425223,-0.109559104,-0.104415044,-0.10776424,-0.075545035,-0.060801666,-0.086803555,-0.07415475,-0.064441346,-0.056480777,-0.08795883,-0.086749874,-0.122251675,-0.14678855,-0.12463885,-0.13284469,-0.12481768,-0.13601896,-0.13020173,-0.15227464,-0.1324079,-0.13993984,-0.11755528,-0.123599894,-0.083006516,-0.15169147,-0.10062776,-0.070129104,-0.06386414,-0.06635605,-0.073120974,-0.1101939,-0.15184279,-0.16218263,-0.108836465,-0.12414421,-0.13412055,-0.103926174,-0.08278014,-0.08090127,-0.05810603,-0.016694853,-0.042201895,-0.039317243,-0.036515698,-0.009569124,-0.026995795,-0.009860179,0.0070581143,-0.022602445,0.004125254,0.06054752,0.041285355,0.09269444,0.09796724,0.10638265,0.10483209,0.12099639,0.14728348,0.09668035,0.07459695,0.00795399,-0.016274473,-0.033397634,-0.0533826,-0.05018338,-0.036975138,-0.00788492,0.049184777,0.02657127,0.33048168,0.81481856,0.82749295,-0.09831048,-0.5410854,-0.3279053,-0.11699949,-0.08413583,-0.10354814,-0.09649936,-0.11001867,-0.10898841,-0.11350356,-0.1129486,-0.083367825,-0.079828516,-0.097498685,-0.09269337,-0.10572481,-0.0828016,-0.092818126,-0.072657526,-0.07719013,-0.07205411,-0.07411513,-0.04202924,-0.014975379,-0.008839394,0.0017056429,0.035037555,0.0006539895,-0.02896524,-0.08598796,-0.110370986,-0.075947866,-0.100715786,-0.13079417,-0.16604683,-0.1239878,-0.12914887,-0.14434159,-0.14878446,-0.12937148,-0.13767113,-0.16912715,-0.119108126,-0.13724042,-0.12939887,-0.11977058,-0.15952055,-0.14128624,-0.12148164,-0.107060336,-0.101588205,-0.13314666,-0.1479635,-0.1289334,-0.13293353,-0.11430128,-0.10059781,-0.072152905,-0.08079702,-0.07490464,-0.071433224,-0.05268893,-0.08824326,-0.08933336,-0.123243235,-0.14432396,-0.14007202,-0.12356065,-0.12877144,-0.13735305,-0.1194945,-0.14203157,-0.14024684,-0.13793413,-0.11760964,-0.13078609,-0.103784524,-0.124535374,-0.08541214,-0.06004589,-0.06220538,-0.0742671,-0.07560515,-0.10059447,-0.13178076,-0.13595752,-0.10661861,-0.115043394,-0.1160531,-0.10141453,-0.06899354,-0.06759561,-0.053722605,0.0052005714,-0.023198556,-0.030441748,-0.04551123,-0.0030609493,-0.028754335,0.0017293672,0.010967637,-0.007106899,0.013217777,0.062869035,0.053835146,0.08430654,0.10583283,0.11782663,0.119488806,0.13482232,0.15109748,0.10161854,0.08037542,0.0055953306,-0.021201156,-0.04617142,-0.05255987,-0.04645816,-0.038319446,-0.010904892,0.04072864,0.02356739,0.33343345,0.8232318,0.8327315,-0.077874094,-0.5512502,-0.32112032,-0.14710659,-0.095359996,-0.10913695,-0.09956639,-0.10551537,-0.10548421,-0.102065414,-0.10379165,-0.09102669,-0.09712885,-0.09340125,-0.1041758,-0.09867438,-0.081863716,-0.08797249,-0.07212339,-0.07423348,-0.0695249,-0.06549914,-0.03382036,-0.02051712,-0.0040994277,0.015212062,0.048392244,0.008287459,-0.036177155,-0.07131447,-0.096306205,-0.09241451,-0.12989402,-0.14506352,-0.16981992,-0.10499353,-0.112478785,-0.1410946,-0.1562427,-0.13246606,-0.13745442,-0.15627995,-0.114500046,-0.13191994,-0.122504905,-0.11148582,-0.15162711,-0.13972466,-0.124340214,-0.11852928,-0.11182626,-0.13127306,-0.15223725,-0.13703609,-0.1440209,-0.11499589,-0.11972194,-0.08572573,-0.081661694,-0.07940112,-0.069981135,-0.05844376,-0.08522603,-0.09445386,-0.12752512,-0.1483526,-0.15789269,-0.12660672,-0.13388355,-0.13611205,-0.112791784,-0.13261738,-0.14776464,-0.1346883,-0.11561401,-0.12466932,-0.094976105,-0.09940089,-0.07501668,-0.06640096,-0.07070655,-0.08690986,-0.09472155,-0.09597435,-0.124444656,-0.112420335,-0.10634395,-0.10701497,-0.112759575,-0.102242954,-0.07117142,-0.06285317,-0.05742537,-0.0015145434,-0.026401693,-0.033772297,-0.050204776,-0.010597364,-0.029683135,0.0026513797,0.00818086,-0.007772475,0.015781991,0.05816151,0.052069437,0.07758521,0.09785158,0.1107346,0.114079,0.13184148,0.15338531,0.09934353,0.07593775,-0.0035725264,-0.029058585,-0.052683912,-0.051992957,-0.03700936,-0.027168863,-0.012265133,0.02879878,0.022221968,0.32892212,0.81784534,0.8298862,-0.064355634,-0.5457441,-0.3200703,-0.16799685,-0.11187459,-0.12367246,-0.105916984,-0.109463826,-0.11342295,-0.10449669,-0.10961793,-0.10519715,-0.111873575,-0.10452312,-0.121773444,-0.1104107,-0.08956112,-0.09536719,-0.08000855,-0.08345204,-0.08265738,-0.071812995,-0.03394973,-0.028100926,-0.010161526,0.030691724,0.04576235,0.0116474535,-0.045865368,-0.07422709,-0.09131313,-0.096369244,-0.12946674,-0.13684429,-0.16865699,-0.10323144,-0.11494349,-0.14046235,-0.14892274,-0.1338447,-0.13825944,-0.16333285,-0.117649086,-0.12649061,-0.121878065,-0.11674231,-0.1438572,-0.136763,-0.12039278,-0.12229407,-0.110578366,-0.13591242,-0.15631491,-0.14892332,-0.14123395,-0.117658556,-0.11968711,-0.09694474,-0.08534053,-0.09053405,-0.0682397,-0.07275764,-0.07589693,-0.09431368,-0.12489448,-0.15103,-0.16047223,-0.12748893,-0.12950514,-0.13571316,-0.10971353,-0.12637961,-0.14672557,-0.13250804,-0.11249624,-0.12675783,-0.09608148,-0.096779816,-0.067928515,-0.06718448,-0.07094724,-0.09146177,-0.09353511,-0.09956872,-0.12552163,-0.11144692,-0.105808154,-0.098643646,-0.10360184,-0.10000002,-0.06676564,-0.06508159,-0.06545306,-0.003751839,-0.027919048,-0.04181551,-0.045543782,-0.016829094,-0.034136347,-0.0012699655,0.004545407,-0.017257227,0.019209076,0.0487232,0.05337805,0.06787289,0.09007753,0.10108144,0.11506809,0.14066806,0.15522626,0.10327689,0.07808818,-0.00942089,-0.03183634,-0.06303721,-0.05900625,-0.049435012,-0.032365642,-0.012862716,0.02750822,0.027763411,0.34319448,0.82329273,0.83841306,-0.060907543,-0.549026,-0.33814293,-0.17678905,-0.1232293,-0.12930302,-0.11390178,-0.11901607,-0.11717172,-0.110764906,-0.11499227,-0.106227845,-0.11931912,-0.11053754,-0.12678184,-0.11697186,-0.09613613,-0.10116346,-0.08438082,-0.08837182,-0.093823604,-0.07880349,-0.04903759,-0.0340266,-0.015593005,0.032191563,0.044420134,0.018945878,-0.04952614,-0.0832164,-0.091647334,-0.09390492,-0.13022037,-0.13034484,-0.16426267,-0.09275329,-0.1122044,-0.13445593,-0.13869059,-0.12443107,-0.15575753,-0.17055856,-0.115866475,-0.11478831,-0.121290825,-0.11054072,-0.12728356,-0.12416444,-0.118104786,-0.12786421,-0.120411165,-0.14322324,-0.14706731,-0.15197544,-0.13330528,-0.12366396,-0.12575157,-0.11594971,-0.098837115,-0.09965684,-0.07078033,-0.08238076,-0.059492823,-0.09686635,-0.10816469,-0.1516296,-0.1760642,-0.13578308,-0.13593343,-0.13256364,-0.105313286,-0.11932561,-0.14587863,-0.13585532,-0.120007776,-0.13842669,-0.11524248,-0.09013784,-0.051672757,-0.04964103,-0.063855775,-0.09254588,-0.105478495,-0.09701985,-0.124375574,-0.1121256,-0.10599827,-0.080971524,-0.092798844,-0.09947768,-0.06969566,-0.06697802,-0.063902125,0.004590015,-0.02163025,-0.03729316,-0.035428256,-0.027369967,-0.047640853,-0.009631543,0.008310994,-0.010318634,0.038407248,0.053837925,0.05924926,0.064158745,0.09103654,0.09939818,0.12850825,0.15767114,0.17059827,0.12046041,0.09342502,-0.0026894256,-0.025878986,-0.0566217,-0.059702944,-0.058797617,-0.041073337,-0.014800636,0.03626632,0.04303062,0.37970248,0.8553138,0.8735104,-0.07625124,-0.5949878,-0.38419315,-0.18117164,-0.123249836,-0.13130544,-0.12019457,-0.123149104,-0.12072178,-0.11693001,-0.11960762,-0.10775394,-0.12483839,-0.11493081,-0.124894574,-0.11526894,-0.10536257,-0.11206875,-0.0987535,-0.09812566,-0.120343715,-0.106144175,-0.082792595,-0.032885868,-0.017237023,0.02656353,0.040880892,0.016235892,-0.06350449,-0.105722584,-0.1090311,-0.10323769,-0.13738799,-0.12409392,-0.14755076,-0.074154764,-0.099977456,-0.1341636,-0.14784637,-0.122055516,-0.13568267,-0.13587789,-0.09172931,-0.10790165,-0.12815428,-0.11856022,-0.14444439,-0.14767605,-0.14188117,-0.11639356,-0.1046796,-0.14484257,-0.14868641,-0.12834387,-0.16279387,-0.12123831,-0.11196297,-0.07074396,-0.085913174,-0.06292859,-0.083896935,-0.052075446,-0.1016689,-0.104589835,-0.11979194,-0.1320939,-0.14746015,-0.1087898,-0.13196886,-0.12672563,-0.11517677,-0.11793487,-0.14320464,-0.13013442,-0.12274515,-0.12006847,-0.1074791,-0.09582783,-0.07022682,-0.052298546,-0.064390145,-0.06895381,-0.080563135,-0.081191145,-0.11749445,-0.12351482,-0.10569848,-0.10561307,-0.112231314,-0.094563015,-0.059837,-0.04847345,-0.047470775,0.015763475,-0.025425952,-0.025525665,-0.043666653,0.0031331559,-0.03402934,0.013501739,0.015425512,0.004742184,0.011259149,0.06428909,0.05187984,0.08505305,0.11098022,0.14108147,0.12258012,0.14415549,0.15372016,0.099942364,0.08493639,0.017636525,-0.014603176,-0.044916436,-0.045726016,-0.043953992,-0.054468986,-0.032374937,0.031273656,0.024697814,0.34298745,0.8462797,0.85468936,-0.091686256,-0.5906839,-0.34756073,-0.16441813,-0.08330027,-0.11998002,-0.09212911,-0.10165826,-0.11703173,-0.11297679,-0.11240545,-0.10950271,-0.1042875,-0.09572843,-0.09295968,-0.09416847,-0.07931877,-0.09659298,-0.07526609,-0.085144415,-0.074940614,-0.06828057,-0.015655424,-0.012897287,0.0045551485,0.025463032,0.060607295,0.016701188,-0.039342575,-0.07024664,-0.08562866,-0.09836085,-0.12540004,-0.14754829,-0.16823997,-0.1053254,-0.10526928,-0.13640168,-0.14743115,-0.13811108,-0.16375582,-0.18479602,-0.13595606,-0.13147043,-0.109836616,-0.11504038,-0.12420399,-0.12212859,-0.11177364,-0.13805056,-0.1273512,-0.1351051,-0.15725952,-0.1613925,-0.11708324,-0.1255823,-0.13873686,-0.12889728,-0.10132998,-0.11158116,-0.05707526,-0.101543285,-0.045453243,-0.09401416,-0.11294833,-0.1663474,-0.17691493,-0.14772686,-0.12858696,-0.13428652,-0.10361304,-0.12077523,-0.1557512,-0.136934,-0.11220007,-0.13158458,-0.100998476,-0.082711875,-0.04742876,-0.061095912,-0.069536634,-0.10454767,-0.1222291,-0.0992507,-0.12684698,-0.09311192,-0.110617146,-0.07637417,-0.09625456,-0.102757685,-0.06966109,-0.06759576,-0.07242305,-0.0085844295,-0.023999255,-0.044609293,-0.04617507,-0.026912441,-0.036874264,-0.010420071,0.00030739605,-0.0321828,0.034795873,0.03654127,0.054656222,0.055835065,0.08081396,0.07929409,0.11601275,0.15543038,0.1739903,0.12327845,0.08818413,-0.02098781,-0.032291595,-0.06531894,-0.05911169,-0.06063692,-0.028435169,-0.008621471,0.026419261,0.041503504,0.37583932,0.8351192,0.8601256,-0.05945413,-0.56147623,-0.37186915,-0.19169624,-0.14154658,-0.1448652,-0.12913193,-0.13262725,-0.12523447,-0.12311646,-0.13526689,-0.11009797,-0.13644214,-0.13241702,-0.1433968,-0.1288564,-0.11984581,-0.11858511,-0.10582604,-0.106516786,-0.13304031,-0.11401377,-0.09078483,-0.0453068,-0.028543625,0.039284438,0.03259343,0.014944505,-0.07170531,-0.12140505,-0.11362563,-0.100699686,-0.13416107,-0.108307794,-0.14572965,-0.06564445,-0.110588424,-0.1320584,-0.17301357,-0.14969908,-0.16219659,-0.19236958,-0.14798127,-0.14744529,-0.12212045,-0.102534026,-0.14796397,-0.12626491,-0.1355802,-0.11369692,-0.10368757,-0.11185801,-0.13435268,-0.11467385,-0.12735586,-0.10526438,-0.11022597,-0.07844064,-0.08083186,-0.07454552,-0.060901146,-0.06454003,-0.07379389,-0.08352337,-0.12369298,-0.15529035,-0.15180005,-0.14562777,-0.14339979,-0.15076688,-0.13462934,-0.14556389,-0.16356325,-0.13978629,-0.124846905,-0.13659278,-0.1080094,-0.11007232,-0.08102491,-0.048993554,-0.07173205,-0.07230467,-0.081602655,-0.09865983,-0.14663005,-0.13608156,-0.115169205,-0.103537984,-0.12226833,-0.08912396,-0.07432929,-0.052257296,-0.046795763,0.0019055877,-0.01957792,-0.01735882,-0.056424808,-0.010426239,-0.030914836,-0.001755936,0.01716839,-0.011848059,0.017650349,0.06354798,0.047515653,0.085984066,0.09326432,0.11437154,0.1195525,0.13582805,0.1501394,0.116340876,0.06572398,0.012864379,-0.012394254,-0.036204852,-0.046316452,-0.02566547,-0.04159435,-0.0010396685,0.04169727,0.033367697,0.34822693,0.8321938,0.8463152,-0.08294344,-0.55957454,-0.3278691,-0.15637141,-0.10458863,-0.122658044,-0.11287252,-0.116583765,-0.110409416,-0.113472685,-0.10316199,-0.072510116,-0.07975983,-0.092075214,-0.10222611,-0.09311821,-0.09084838,-0.102754876,-0.08453992,-0.084456556,-0.08222193,-0.07650368,-0.0402367,-0.023599045,-0.0029902214,0.0045270775,0.023235943,-0.031145241,-0.058256075,-0.10278946,-0.11102778,-0.10486294,-0.14285773,-0.15514365,-0.1765777,-0.10332092,-0.11962417,-0.14571758,-0.16217132,-0.14460833,-0.15121403,-0.1781359,-0.13321958,-0.13561672,-0.11543344,-0.096708104,-0.14442855,-0.12214115,-0.12222489,-0.1182638,-0.11275778,-0.12993215,-0.13732992,-0.13090062,-0.13426718,-0.108849384,-0.121725745,-0.095193624,-0.07253727,-0.08202106,-0.06007814,-0.061395925,-0.07073045,-0.09456998,-0.13004164,-0.15370286,-0.15955982,-0.13113038,-0.14111723,-0.14459117,-0.12063372,-0.13209282,-0.14871818,-0.14416279,-0.12944181,-0.14516214,-0.10971193,-0.10956752,-0.08658252,-0.069173165,-0.08009462,-0.09529934,-0.09566357,-0.09844571,-0.131041,-0.11952315,-0.11631163,-0.10675602,-0.115441516,-0.10092299,-0.07950769,-0.0659531,-0.062858135,-0.007953199,-0.031374972,-0.035673887,-0.05075844,-0.0223449,-0.045433722,-0.012310225,0.013690897,-0.002136741,0.029645912,0.05957657,0.053682134,0.07318625,0.09054842,0.100724034,0.12516479,0.13187501,0.15448526,0.107795775,0.07463126,-0.0023219802,-0.029497001,-0.046040405,-0.049342707,-0.025411189,-0.021648044,-0.0023248226,0.032181088,0.03216423,0.34378487,0.8294714,0.8423204,-0.065848105,-0.55646664,-0.3321935,-0.16501454,-0.12186182,-0.12483391,-0.10958525,-0.11228215,-0.11103575,-0.10891378,-0.10510299,-0.09101845,-0.104172654,-0.09880012,-0.11626944,-0.11057226,-0.08495589,-0.10033435,-0.08310311,-0.091625735,-0.083801836,-0.09007194,-0.048720565,-0.035036735,-0.015216921,0.017875833,0.036088232,-0.011646302,-0.061565783,-0.089191645,-0.10355854,-0.10373904,-0.13798337,-0.13949983,-0.17264523,-0.10131895,-0.11387217,-0.1412088,-0.15137115,-0.1445616,-0.15153456,-0.17513582,-0.1256794,-0.12879345,-0.1127733,-0.09840513,-0.13889019,-0.12056852,-0.11511551,-0.12150878,-0.11740561,-0.1348719,-0.13729206,-0.14089176,-0.1321693,-0.11314868,-0.12793975,-0.10953036,-0.0784132,-0.09040733,-0.059108924,-0.07192812,-0.06262416,-0.09584567,-0.12664187,-0.15884943,-0.17004628,-0.13151465,-0.14154463,-0.14465912,-0.11426212,-0.12388921,-0.14827208,-0.14136866,-0.128884,-0.15168205,-0.1211607,-0.10905357,-0.077208236,-0.06813481,-0.078275755,-0.10534659,-0.09812515,-0.10552458,-0.12870935,-0.119277686,-0.11393458,-0.09685975,-0.10663097,-0.106669225,-0.075448215,-0.06752925,-0.065263346,-0.004775424,-0.02546035,-0.049566757,-0.045363627,-0.03163563,-0.055637885,-0.018004125,0.013630103,-0.003134791,0.041019894,0.05460506,0.056423016,0.06298914,0.09276678,0.095095515,0.13120793,0.14658841,0.16017653,0.11760437,0.08348089,-0.0050470433,-0.035211883,-0.052427962,-0.05252992,-0.036115337,-0.025231564,-0.005803132,0.034425072,0.035967138,0.36943877,0.8494563,0.8634986,-0.07134917,-0.581496,-0.36506727,-0.18115953,-0.13304533,-0.13075659,-0.122144386,-0.11491698,-0.11617553,-0.1136564,-0.115764596,-0.094744176,-0.119854994,-0.10210038,-0.12432119,-0.108852535,-0.0943203,-0.10128586,-0.09097787,-0.09884806,-0.097520694,-0.098760255,-0.06520765,-0.041824643,-0.01851358,0.027134473,0.0403821,-0.0006348154,-0.06435947,-0.10145528,-0.1040231,-0.10212319,-0.13743493,-0.122415915,-0.15947111,-0.08123955,-0.10718022,-0.13485262,-0.14327218,-0.13137522,-0.14142774,-0.17025901,-0.12484475,-0.12656839,-0.11896224,-0.117177784,-0.14384317,-0.12549925,-0.10469156,-0.11634317,-0.10936094,-0.13924372,-0.14591867,-0.14175834,-0.1294283,-0.115392685,-0.109984234,-0.10289156,-0.088172026,-0.10026656,-0.06238222,-0.08033907,-0.06812461,-0.09164921,-0.12022042,-0.15348919,-0.15836932,-0.12572365,-0.13311538,-0.14131944,-0.117119506,-0.12203602,-0.14300404,-0.13777338,-0.12244732,-0.14462377,-0.1128555,-0.1063851,-0.07239215,-0.060144175,-0.06597349,-0.08412377,-0.09086777,-0.09917374,-0.13542898,-0.12407632,-0.10720006,-0.09636912,-0.09818811,-0.093389764,-0.058855847,-0.06642494,-0.06833243,-0.008546246,-0.024130166,-0.05389992,-0.033015247,-0.02001352,-0.03786956,-0.0044322163,0.011222873,-0.012857733,0.03504967,0.051737342,0.06392978,0.07154361,0.09742041,0.10404626,0.12762082,0.15550788,0.15525231,0.11832851,0.0888846,-0.00076214946,-0.03215163,-0.060849074,-0.06932956,-0.060143664,-0.04594753,-0.016075425,0.032425232,0.035009082,0.36986187,0.8422205,0.8572799,-0.07020686,-0.5709622,-0.36031833,-0.16823153,-0.12542975,-0.122162044,-0.1150802,-0.12356862,-0.11449367,-0.10976478,-0.115018554,-0.09332209,-0.11758756,-0.10061723,-0.11082185,-0.109719455,-0.09907749,-0.09798241,-0.087728314,-0.09013442,-0.09625084,-0.08892159,-0.06192066,-0.04377741,-0.015352961,0.02582209,0.046787042,0.019721277,-0.050427597,-0.08869315,-0.09960076,-0.10251245,-0.13764672,-0.13348334,-0.16569105,-0.07574226,-0.10205493,-0.12932605,-0.15356189,-0.13574067,-0.14361656,-0.16162801,-0.11807072,-0.124351345,-0.122568496,-0.11313834,-0.14608155,-0.1355762,-0.12244685,-0.118539385,-0.119755164,-0.1366719,-0.14783147,-0.13969798,-0.14315604,-0.12218236,-0.12324856,-0.09441265,-0.09246924,-0.085608535,-0.06407132,-0.070654824,-0.08117833,-0.09915676,-0.1220165,-0.14789563,-0.16839191,-0.12633964,-0.13657485,-0.14008816,-0.11410272,-0.12088141,-0.14843759,-0.13208126,-0.114834405,-0.12931791,-0.10695119,-0.098495565,-0.069750324,-0.060665112,-0.06953507,-0.081741944,-0.0907989,-0.09328843,-0.13124627,-0.119270146,-0.109278105,-0.10092948,-0.10298679,-0.09694035,-0.062463313,-0.054178245,-0.062734656,-0.0007506178,-0.023067359,-0.044125088,-0.041699268,-0.01684968,-0.041217007,-0.00037510693,0.011759695,-0.005248677,0.030011946,0.05664186,0.059418198,0.076938406,0.10255621,0.11565602,0.12132495,0.15125217,0.15383132,0.10631783,0.08432302,0.0023130954,-0.029230965,-0.05948903,-0.060822945,-0.049295645,-0.042014018,-0.02220122,0.030199563,0.026957395,0.36361516,0.84748006,0.8591318,-0.07816753,-0.5866297,-0.35703862,-0.17953613,-0.117878936,-0.12738986,-0.1172621,-0.116017,-0.12182714,-0.11521617,-0.119460516,-0.10223449,-0.11545352,-0.10423784,-0.112632036,-0.10323001,-0.09779595,-0.09990376,-0.08753071,-0.09132119,-0.09471307,-0.0817491,-0.044698693,-0.033341564,-0.00844257,0.038109567,0.055772543,0.019528996,-0.052442253,-0.08557408,-0.08886339,-0.10512136,-0.13915162,-0.13073638,-0.1634284,-0.08559031,-0.107320234,-0.13597147,-0.14115778,-0.12295061,-0.13289519,-0.162142,-0.12230838,-0.12643112,-0.12743825,-0.1249808,-0.15041798,-0.13367632,-0.10454152,-0.11507338,-0.112039864,-0.13580593,-0.15497364,-0.14799662,-0.12346581,-0.112406515,-0.10645572,-0.10060313,-0.09341396,-0.107192494,-0.06672123,-0.08953142,-0.06380014,-0.08720345,-0.115578204,-0.15418606,-0.16088255,-0.13301973,-0.12613188,-0.1436306,-0.11853834,-0.118671246,-0.14141014,-0.13684157,-0.11144475,-0.14117548,-0.10888801,-0.10045279,-0.06587602,-0.05320496,-0.061971325,-0.079094015,-0.08268751,-0.09667779,-0.14204118,-0.12746039,-0.1083299,-0.0994255,-0.09647913,-0.095373034,-0.055065818,-0.06034619,-0.068389855,-0.0020700793,-0.015982052,-0.052562777,-0.033033226,-0.019470949,-0.03387661,-0.0026614154,0.011965436,-0.0185946,0.03613644,0.047756337,0.06844622,0.06914753,0.0897646,0.09520332,0.123187296,0.15745215,0.14786991,0.12532707,0.1001298,-0.004444175,-0.02978314,-0.07412243,-0.07805793,-0.07906888,-0.059272457,-0.018251201,0.037202016,0.027620137,0.3688187,0.83998036,0.8574992,-0.07363298,-0.573159,-0.3618809,-0.17352812,-0.122324616,-0.12125357,-0.12565109,-0.13272898,-0.119455345,-0.1117993,-0.12129185,-0.09069612,-0.11855239,-0.10572904,-0.11445188,-0.107636705,-0.105475195,-0.09504931,-0.08169275,-0.08259942,-0.09875509,-0.07897136,-0.057311393,-0.039823484,-0.016150193,0.03379022,0.053996656,0.03856111,-0.04089439,-0.07928227,-0.09279038,-0.09384155,-0.13723469,-0.13110891,-0.16001403,-0.059136678,-0.102359004,-0.129347,-0.16334657,-0.12895808,-0.13119163,-0.12513432,-0.08144257,-0.11085621,-0.12477256,-0.11731929,-0.15193066,-0.15479779,-0.14014618,-0.112195425,-0.109699585,-0.13653553,-0.15028769,-0.1176342,-0.16663471,-0.11867794,-0.11229013,-0.058097407,-0.081790246,-0.053441525,-0.07877268,-0.0475172,-0.112631835,-0.11227124,-0.12572758,-0.13184994,-0.15123112,-0.10605228,-0.13342273,-0.12952562,-0.11474775,-0.11714109,-0.14673325,-0.13164994,-0.12247362,-0.106714696,-0.10156622,-0.09048523,-0.07988448,-0.061212514,-0.06845215,-0.06955774,-0.084967084,-0.078022175,-0.120072156,-0.120321184,-0.10667608,-0.11618778,-0.12118329,-0.104670055,-0.06230147,-0.03816651,-0.046918243,0.015427457,-0.026619874,-0.031291015,-0.050686087,0.006936025,-0.028207175,0.024179809,0.018943321,0.011390976,0.011859027,0.067490354,0.049088173,0.09138253,0.11796771,0.14454001,0.117470674,0.13705252,0.15269595,0.099572055,0.08372718,0.014959611,-0.02076337,-0.043676183,-0.04228302,-0.033734284,-0.048507478,-0.037041202,0.03341537,0.019478986,0.33525628,0.8436326,0.8498597,-0.08927517,-0.5873512,-0.33415252,-0.16975419,-0.083615236,-0.12459736,-0.09049345,-0.09195631,-0.114678316,-0.114557154,-0.122812316,-0.10849341,-0.10719405,-0.09332679,-0.092014015,-0.087842256,-0.07779118,-0.09066698,-0.077123605,-0.0901066,-0.06737598,-0.06268919,0.0022544665,-0.011337431,0.00876358,0.037555937,0.066042535,0.014887657,-0.036084164,-0.065455556,-0.083737455,-0.09669706,-0.11165053,-0.13742678,-0.17081739,-0.1132553,-0.1163055,-0.14201455,-0.15491259,-0.1480898,-0.16417146,-0.18413168,-0.13915318,-0.1340734,-0.11077463,-0.1123395,-0.12872927,-0.12807924,-0.11073777,-0.13505797,-0.13226311,-0.13375652,-0.1611048,-0.1604249,-0.121201605,-0.13190399,-0.13824466,-0.13165478,-0.1037522,-0.11299094,-0.053833067,-0.09618798,-0.048860736,-0.09796472,-0.12056648,-0.16620582,-0.1805199,-0.14409359,-0.1297047,-0.1365982,-0.10218454,-0.11797126,-0.15298927,-0.13384962,-0.10760954,-0.12215046,-0.09636542,-0.08531037,-0.05647106,-0.06665513,-0.07415006,-0.10626288,-0.12297251,-0.10146199,-0.12569384,-0.09293164,-0.113880716,-0.08390935,-0.098875575,-0.10854462,-0.072327964,-0.06426295,-0.075428724,-0.010283843,-0.025253536,-0.05136334,-0.049652312,-0.031225802,-0.04401702,-0.01321122,0.0026653977,-0.023052689,0.03777526,0.03500859,0.056474246,0.05815049,0.09089702,0.08013203,0.116384424,0.15104085,0.1733925,0.11843663,0.08547901,-0.023945594,-0.039317627,-0.065331906,-0.058160044,-0.05183789,-0.018947078,-0.00952615,0.035286926,0.037481938,0.37235722,0.8346392,0.8574874,-0.058121327,-0.55669856,-0.36555865,-0.19493541,-0.14952767,-0.14859615,-0.12993854,-0.1271981,-0.12606873,-0.12162219,-0.1361858,-0.10631639,-0.13935061,-0.12873204,-0.14803742,-0.12973002,-0.121753745,-0.11699117,-0.1109631,-0.110901676,-0.12695612,-0.11254361,-0.082131594,-0.04525477,-0.026314963,0.046564873,0.034303416,0.013875088,-0.071947694,-0.12033438,-0.10536698,-0.09775849,-0.1306887,-0.09830737,-0.15011896,-0.06677038,-0.11579339,-0.13500215,